0,0,0,0
0,0,-0.1,-0.1
0,0,0.8,1.1
0,0,9,13.3
0,0,36.7,54.7
0,0,91.4,136.4
0,0,168.6,251.9
0,0,259.9,388.3
0,0,360.3,538.4
0,0,466.1,696.7
0,0,570.9,853.7
0,0,667.6,998.6
0,0,750.5,1123.1
0.1,0,816.4,1222.2
0.1,0,863.4,1293.4
0.1,0,890.8,1335.5
0.1,0,897.8,1347.1
0.1,0,884.5,1328.2
0.1,0,852.8,1281.7
0.1,0,806.6,1213.2
0.1,0,748.2,1126.5
0.1,0,679.2,1023.5
0.1,0,602.3,908.4
0.1,0,521.6,787.6
0.1,0,440.2,665.6
0.1,0,359,543.6
0.1,0,279.3,423.8
0.1,0,203.7,309.9
0.1,0,133.8,204.5
0.1,0,69.7,107.7
0.1,0,10.8,18.8
0.1,0,-42.1,-61.2
0.1,1,-88.7,-131.6
0.1,1,-129.5,-193.3
0.1,1,-165.6,-247.8
0.1,1,-197.5,-295.8
0.1,1,-225.5,-337.7
0.1,1,-250.2,-374.5
0.2,1,-272.2,-407.3
0.2,1,-292.2,-437.2
0.2,1,-310.7,-464.9
0.2,1,-327.9,-490.8
0.2,1,-343.9,-515.1
0.2,1,-359,-538.3
0.2,1,-373.9,-561.3
0.2,1,-388.6,-583.9
0.2,1,-402.6,-605.5
0.2,1,-415.9,-625.9
0.2,1,-429.1,-646.1
0.2,1,-442.2,-665.9
0.2,1,-454.4,-684.2
0.2,1,-465.5,-700.5
0.2,1,-475.9,-715.6
0.2,1,-485.9,-729.9
0.2,1,-494.7,-742.3
0.2,1,-501.9,-752.1
0.2,1,-508,-760.1
0.2,1,-513.4,-767.1
0.2,1,-517.7,-772.3
0.2,1,-520.2,-775.1
0.2,1,-521.2,-776
0.2,1,-521.4,-775.9
0.2,1,-520.4,-774.7
0.3,1,-517.8,-771.6
0.3,2,-513.8,-766.9
0.3,2,-509.1,-761.7
0.3,2,-503.7,-755.9
0.3,2,-497.4,-748.9
0.3,2,-490.2,-740.9
0.3,2,-482.7,-732.3
0.3,2,-475,-723.5
0.3,2,-467,-713.9
0.3,2,-458.6,-703.5
0.3,2,-450.1,-692.5
0.3,2,-441.7,-681
0.3,2,-433.4,-669.1
0.3,2,-425.2,-656.5
0.3,2,-417,-643.3
0.3,2,-408.8,-629.5
0.3,2,-400.6,-615.4
0.3,2,-392.4,-600.9
0.3,2,-384,-585.9
0.3,2,-375.1,-570.3
0.3,2,-366,-554.4
0.3,2,-356.6,-538.5
0.3,2,-346.9,-522.2
0.3,2,-336.6,-505.3
0.3,2,-325.8,-488.1
0.4,2,-314.8,-471
0.4,2,-303.7,-453.9
0.4,2,-291.9,-436.2
0.4,2,-279.8,-418.1
0.4,2,-267.7,-400.3
0.4,2,-255.6,-382.6
0.4,2,-243.2,-364.4
0.4,2,-230.6,-345.8
0.4,3,-218,-327.4
0.4,3,-205.7,-309.4
0.4,3,-193.3,-291.1
0.4,3,-180.6,-272.4
0.4,3,-168,-254
0.4,3,-155.9,-236
0.4,3,-143.7,-218
0.4,3,-131.3,-199.6
0.4,3,-119.1,-181.3
0.4,3,-107.3,-163.6
0.4,3,-95.5,-146.1
0.4,3,-83.7,-128.4
0.4,3,-71.9,-110.9
0.4,3,-60.4,-93.9
0.4,3,-49.1,-77.2
0.4,3,-37.8,-60.5
0.4,3,-26.4,-43.9
0.5,3,-15.5,-27.7
0.5,3,-4.8,-12
0.5,3,5.7,3.7
0.5,3,15.9,19.2
0.5,3,25.7,34.2
0.5,3,35,48.8
0.5,3,43.9,63.1
0.5,3,52.5,77.1
0.5,3,60.7,90.9
0.5,3,68.8,104.3
0.5,3,76.8,117.5
0.5,3,84.8,130.5
0.5,3,92.8,143.5
0.5,3,100.9,156.2
0.5,3,108.9,168.7
0.5,4,117,181
0.5,4,125.1,193
0.5,4,133.2,204.9
0.5,4,141.3,216.4
0.5,4,149.2,227.4
0.5,4,157,238
0.5,4,164.8,248.4
0.5,4,172.3,258.5
0.5,4,179.5,268
0.5,4,186.4,277.1
0.6,4,193.1,286.1
0.6,4,199.5,295
0.6,4,205.4,303.3
0.6,4,210.8,311.1
0.6,4,216,318.9
0.6,4,220.9,326.4
0.6,4,225.3,333.3
0.6,4,229.2,339.5
0.6,4,232.9,345.5
0.6,4,236.4,351.4
0.6,4,239.4,356.6
0.6,4,241.8,361.1
0.6,4,243.8,365.2
0.6,4,245.7,369.2
0.6,4,247.1,372.9
0.6,4,248.1,375.9
0.6,4,248.8,378.7
0.6,4,249.4,381.5
0.6,4,249.8,384
0.6,4,249.7,385.9
0.6,4,249.4,387.5
0.6,4,249.2,389.1
0.6,5,248.9,390.5
0.6,5,248.3,391.4
0.6,5,247.6,391.9
0.7,5,247,392.4
0.7,5,246.5,392.7
0.7,5,245.9,392.6
0.7,5,245.2,392.1
0.7,5,244.7,391.5
0.7,5,244.4,390.8
0.7,5,244.1,389.9
0.7,5,243.8,388.6
0.7,5,243.5,387.1
0.7,5,243.3,385.6
0.7,5,243,383.8
0.7,5,242.5,381.6
0.7,5,241.7,379.2
0.7,5,240.7,376.6
0.7,5,239.3,373.7
0.7,5,237.6,370.6
0.7,5,235.4,367
0.7,5,232.8,363.1
0.7,5,230,359
0.7,5,227,354.6
0.7,5,223.9,350
0.7,5,220.7,345.1
0.7,5,217.5,340
0.7,5,214.4,335
0.7,5,211.3,330
0.8,5,208.2,324.8
0.8,5,205.3,319.7
0.8,5,202.5,314.8
0.8,5,199.9,310
0.8,6,197.4,305.1
0.8,6,194.9,300
0.8,6,192.6,295.1
0.8,6,190.4,290.1
0.8,6,188,284.9
0.8,6,185.4,279.4
0.8,6,182.7,273.7
0.8,6,179.8,267.9
0.8,6,176.4,261.8
0.8,6,172.7,255.3
0.8,6,168.6,248.7
0.8,6,164.5,242.1
0.8,6,160.2,235.5
0.8,6,155.7,228.7
0.8,6,151.3,221.9
0.8,6,147,215.3
0.8,6,142.9,208.9
0.8,6,138.7,202.3
0.8,6,134.6,195.8
0.8,6,130.8,189.4
0.8,6,127.1,183.2
0.9,6,123.4,176.7
0.9,6,119.6,170.3
0.9,6,115.9,164
0.9,6,112.2,157.9
0.9,6,108.4,151.8
0.9,6,104.3,145.6
0.9,6,100.2,139.7
0.9,6,96.1,133.9
0.9,6,91.7,128.1
0.9,6,87.1,122.1
0.9,6,82.5,116.3
0.9,7,77.8,110.5
0.9,7,73,104.7
0.9,7,68.1,98.7
0.9,7,63.3,92.8
0.9,7,58.7,87
0.9,7,54.2,81.3
0.9,7,49.9,75.5
0.9,7,45.7,69.8
0.9,7,41.9,64.2
0.9,7,38.3,58.7
0.9,7,34.9,53.1
0.9,7,31.6,47.7
0.9,7,28.4,42.2
0.9,7,25.1,36.9
1,7,21.8,31.6
1,7,18.3,26.4
1,7,14.6,21.1
1,7,10.8,15.9
1,7,7,10.8
1,7,3.2,5.7
1,7,-0.5,0.7
1,7,-4,-4.4
1,7,-7.3,-9.4
1,7,-10.3,-14.4
1,7,-13.1,-19.3
1,7,-15.7,-24.2
1,7,-18,-29
1,7,-20.2,-33.6
1,7,-22.4,-38.1
1,7,-24.5,-42.6
1,7,-26.7,-46.9
1,7,-28.7,-51
1,8,-30.8,-55.1
1,8,-33,-59.1
1,8,-35.2,-63
1,8,-37.4,-66.7
1,8,-39.6,-70.2
1,8,-41.8,-73.6
1,8,-44,-77
1.1,8,-46.1,-79.9
1.1,8,-47.9,-82.6
1.1,8,-49.7,-85.2
1.1,8,-51.3,-87.6
1.1,8,-52.6,-89.7
1.1,8,-53.6,-91.6
1.1,8,-54.5,-93.5
1.1,8,-55.3,-95.3
1.1,8,-55.8,-97.1
1.1,8,-56.1,-98.7
1.1,8,-56.3,-100.4
1.1,8,-56.6,-102.1
1.1,8,-56.9,-103.9
1.1,8,-57.3,-105.6
1.1,8,-58,-107.3
1.1,8,-58.9,-109.1
1.1,8,-60.2,-110.8
1.1,8,-61.6,-112.3
1.1,8,-63.2,-113.8
1.1,8,-65.1,-115.2
1.1,8,-67.2,-116.6
1.1,8,-69.4,-117.8
1.1,8,-71.6,-118.9
1.1,8,-74,-120
1.1,8,-76.3,-121
1.2,9,-78.6,-122
1.2,9,-80.6,-122.9
1.2,9,-82.5,-123.7
1.2,9,-84,-124.4
1.2,9,-85.1,-125
1.2,9,-85.8,-125.4
1.2,9,-86.1,-125.6
1.2,9,-86.1,-125.7
1.2,9,-85.8,-125.7
1.2,9,-85.3,-125.6
1.2,9,-84.6,-125.4
1.2,9,-83.9,-125.1
1.2,9,-83.2,-124.8
1.2,9,-82.5,-124.5
1.2,9,-81.8,-124
1.2,9,-81.1,-123.4
1.2,9,-80.4,-122.7
1.2,9,-79.7,-121.8
1.2,9,-79.1,-120.9
1.2,9,-78.4,-119.8
1.2,9,-77.7,-118.6
1.2,9,-77.2,-117.6
1.2,9,-76.6,-116.6
1.2,9,-76.1,-115.7
1.2,9,-75.5,-114.8
1.3,9,-75,-114.1
1.3,9,-74.4,-113.5
1.3,9,-73.8,-112.8
1.3,9,-73.2,-112
1.3,9,-72.6,-111.3
1.3,9,-72.1,-110.6
1.3,9,-71.6,-109.8
1.3,10,-71,-108.9
1.3,10,-70.6,-108
1.3,10,-70.1,-107.1
1.3,10,-69.6,-106.1
1.3,10,-69,-105
1.3,10,-68.3,-103.8
1.3,10,-67.4,-102.6
1.3,10,-66.5,-101.2
1.3,10,-65.2,-99.8
1.3,10,-63.9,-98.2
1.3,10,-62.5,-96.6
1.3,10,-61,-95
1.3,10,-59.5,-93.1
1.3,10,-58,-91.2
1.3,10,-56.6,-89.3
1.3,10,-55.4,-87.3
1.3,10,-54.2,-85.3
1.3,10,-53.1,-83.1
1.4,10,-52.2,-81
1.4,10,-51.5,-79
1.4,10,-51,-77.1
1.4,10,-50.5,-75.1
1.4,10,-50.3,-73.4
1.4,10,-50.1,-71.8
1.4,10,-50,-70.4
1.4,10,-49.9,-69.1
1.4,10,-49.8,-68
1.4,10,-49.7,-67.1
1.4,10,-49.6,-66.3
1.4,10,-49.4,-65.5
1.4,10,-49.2,-64.7
1.4,10,-48.9,-64
1.4,11,-48.7,-63.3
1.4,11,-48.3,-62.5
1.4,11,-47.8,-61.6
1.4,11,-47.2,-60.6
1.4,11,-46.3,-59.4
1.4,11,-45.1,-58
1.4,11,-43.6,-56.4
1.4,11,-42,-54.6
1.4,11,-40.2,-52.7
1.4,11,-38.4,-50.6
1.4,11,-36.6,-48.4
1.5,11,-34.9,-46.2
1.5,11,-33.3,-44
1.5,11,-31.9,-41.9
1.5,11,-30.7,-39.8
1.5,11,-29.6,-37.9
1.5,11,-28.7,-36.2
1.5,11,-27.9,-34.8
1.5,11,-27.4,-33.5
1.5,11,-26.9,-32.4
1.5,11,-26.4,-31.3
1.5,11,-25.9,-30.2
1.5,11,-25.4,-29.1
1.5,11,-24.7,-27.8
1.5,11,-23.8,-26.5
1.5,11,-22.8,-25
1.5,11,-21.7,-23.5
1.5,11,-20.5,-22
1.5,11,-19.3,-20.5
1.5,11,-18.1,-19
1.5,11,-17,-17.7
1.5,11,-16,-16.5
1.5,12,-15,-15.3
1.5,12,-14.1,-14.2
1.5,12,-13.3,-13.3
1.5,12,-12.5,-12.4
1.6,12,-11.9,-11.7
1.6,12,-11.2,-11.1
1.6,12,-10.6,-10.7
1.6,12,-10,-10.5
1.6,12,-9.3,-10.2
1.6,12,-8.4,-9.8
1.6,12,-7.4,-9.5
1.6,12,-6.2,-9
1.6,12,-5,-8.3
1.6,12,-3.7,-7.4
1.6,12,-2.4,-6.3
1.6,12,-1.2,-5.2
1.6,12,-0.1,-3.9
1.6,12,0.9,-2.5
1.6,12,1.8,-1.1
1.6,12,2.5,0.2
1.6,12,3,1.5
1.6,12,3.5,2.8
1.6,12,3.9,3.9
1.6,12,4.2,4.9
1.6,12,4.4,5.7
1.6,12,4.7,6.3
1.6,12,4.9,6.8
1.6,12,5.2,7.1
1.6,12,5.4,7.1
1.7,12,5.7,7.1
1.7,12,6,6.9
1.7,12,6.3,6.5
1.7,13,6.5,6.1
1.7,13,6.6,5.6
1.7,13,6.8,5.1
1.7,13,6.9,4.5
1.7,13,7,4
1.7,13,7.2,3.5
1.7,13,7.4,3.1
1.7,13,7.8,2.9
1.7,13,8.2,2.8
1.7,13,8.6,2.9
1.7,13,9.1,3.3
1.7,13,9.6,4
1.7,13,10.2,4.9
1.7,13,10.6,6.1
1.7,13,11.1,7.3
1.7,13,11.4,8.6
1.7,13,11.7,9.9
1.7,13,12,11.2
1.7,13,12.1,12.2
1.7,13,12.1,13.1
1.7,13,12,13.8
1.7,13,11.8,14.2
1.8,13,11.5,14.3
1.8,13,11,14.1
1.8,13,10.6,13.8
1.8,13,10.1,13.3
1.8,13,9.6,12.8
1.8,13,9,12.3
1.8,13,8.5,11.7
1.8,13,8,11.2
1.8,13,7.6,10.6
1.8,13,7.3,10.1
1.8,14,7,9.7
1.8,14,6.8,9.4
1.8,14,6.6,9.1
1.8,14,6.3,9
1.8,14,6,8.9
1.8,14,5.5,8.8
1.8,14,4.9,8.8
1.8,14,4.2,8.7
1.8,14,3.3,8.6
1.8,14,2.5,8.6
1.8,14,1.8,8.6
1.8,14,1.3,8.7
1.8,14,0.9,8.9
1.8,14,0.7,9.3
1.8,14,0.7,9.8
1.9,14,0.8,10.4
1.9,14,0.9,11.1
1.9,14,1.1,11.8
1.9,14,1.4,12.4
1.9,14,1.7,13
1.9,14,2,13.4
1.9,14,2.2,13.6
1.9,14,2.3,13.6
1.9,14,2.4,13.3
1.9,14,2.4,12.8
1.9,14,2.4,12.1
1.9,14,2.3,11.3
1.9,14,2.2,10.4
1.9,14,2.1,9.4
1.9,14,1.9,8.4
1.9,14,1.8,7.4
1.9,14,1.7,6.5
1.9,15,1.7,5.6
1.9,15,1.8,4.9
1.9,15,2.1,4.2
1.9,15,2.4,3.8
1.9,15,2.8,3.4
1.9,15,3.2,3.2
1.9,15,3.5,3
1.9,15,3.7,3
2,15,3.7,3.1
2,15,3.5,3.2
2,15,3.2,3.4
2,15,2.8,3.7
2,15,2.3,4
2,15,1.8,4.3
2,15,1.4,4.5
2,15,0.9,4.7
2,15,0.6,4.8
2,15,0.5,4.8
2,15,0.5,4.8
2,15,0.6,4.7
2,15,0.7,4.6
2,15,1,4.5
2,15,1.3,4.5
2,15,1.5,4.4
2,15,1.8,4.3
2,15,2.1,4.2
2,15,2.4,4.1
2,15,2.5,3.9
2,15,2.6,3.6
2,15,2.6,3.3
2,15,2.5,3
2,15,2.2,2.6
2,16,1.9,2.2
2.1,16,1.7,1.8
2.1,16,1.4,1.4
2.1,16,1.2,1
2.1,16,1,0.6
2.1,16,0.9,0.1
2.1,16,0.8,-0.4
2.1,16,0.6,-0.8
2.1,16,0.5,-1.3
2.1,16,0.5,-1.6
2.1,16,0.4,-1.9
2.1,16,0.4,-2.1
2.1,16,0.4,-2.4
2.1,16,0.3,-2.6
2.1,16,0.2,-2.9
2.1,16,-0.1,-3.3
2.1,16,-0.5,-3.8
2.1,16,-1,-4.4
2.1,16,-1.7,-5.1
2.1,16,-2.3,-5.8
2.1,16,-3,-6.6
2.1,16,-3.7,-7.4
2.1,16,-4.4,-8.1
2.1,16,-5.1,-8.8
2.1,16,-5.8,-9.4
2.1,16,-6.5,-9.9
2.2,16,-7.1,-10.3
2.2,16,-7.7,-10.7
2.2,16,-8.1,-10.9
2.2,16,-8.4,-11.1
2.2,16,-8.4,-11.1
2.2,16,-8.3,-10.9
2.2,17,-7.9,-10.5
2.2,17,-7.4,-10
2.2,17,-6.7,-9.4
2.2,17,-6,-8.7
2.2,17,-5.3,-8
2.2,17,-4.7,-7.4
2.2,17,-4.3,-6.9
2.2,17,-4,-6.5
2.2,17,-3.9,-6.4
2.2,17,-4,-6.4
2.2,17,-4.4,-6.7
2.2,17,-4.9,-7.1
2.2,17,-5.5,-7.6
2.2,17,-6.2,-8.2
2.2,17,-6.9,-8.8
2.2,17,-7.7,-9.4
2.2,17,-8.3,-9.9
2.2,17,-8.9,-10.3
2.2,17,-9.3,-10.7
2.3,17,-9.5,-10.9
2.3,17,-9.6,-11
2.3,17,-9.4,-10.9
2.3,17,-8.9,-10.8
2.3,17,-8.3,-10.6
2.3,17,-7.6,-10.4
2.3,17,-6.7,-10.2
2.3,17,-5.9,-10
2.3,17,-5,-9.8
2.3,17,-4,-9.5
2.3,17,-3.1,-9.3
2.3,17,-2.2,-9
2.3,17,-1.4,-8.8
2.3,18,-0.7,-8.5
2.3,18,-0.2,-8.3
2.3,18,0.1,-8
2.3,18,0.1,-7.8
2.3,18,-0.1,-7.8
2.3,18,-0.4,-7.8
2.3,18,-0.9,-7.8
2.3,18,-1.5,-8
2.3,18,-2.1,-8.2
2.3,18,-2.7,-8.4
2.3,18,-3.2,-8.7
2.3,18,-3.5,-8.9
2.4,18,-3.7,-9
2.4,18,-3.7,-9.1
2.4,18,-3.6,-9.1
2.4,18,-3.4,-9.1
2.4,18,-3.1,-9
2.4,18,-2.7,-9
2.4,18,-2.3,-8.9
2.4,18,-2,-8.9
2.4,18,-1.7,-8.8
2.4,18,-1.4,-8.8
2.4,18,-1.3,-8.7
2.4,18,-1.1,-8.5
2.4,18,-0.9,-8.2
2.4,18,-0.6,-7.8
2.4,18,-0.4,-7.4
2.4,18,-0.2,-6.9
2.4,18,0,-6.3
2.4,18,0.2,-5.8
2.4,18,0.4,-5.2
2.4,18,0.5,-4.6
2.4,19,0.6,-4
2.4,19,0.7,-3.4
2.4,19,0.7,-2.9
2.4,19,0.7,-2.5
2.4,19,0.7,-2
2.5,19,0.7,-1.7
2.5,19,0.7,-1.3
2.5,19,0.8,-1
2.5,19,0.9,-0.6
2.5,19,1,-0.2
2.5,19,1.1,0.2
2.5,19,1.3,0.6
2.5,19,1.4,1.1
2.5,19,1.5,1.5
2.5,19,1.6,1.9
2.5,19,1.7,2.2
2.5,19,1.8,2.5
2.5,19,1.8,2.7
2.5,19,1.7,3
2.5,19,1.6,3.2
2.5,19,1.3,3.3
2.5,19,0.9,3.4
2.5,19,0.4,3.3
2.5,19,-0.4,3.1
2.5,19,-1.2,2.8
2.5,19,-2.2,2.3
2.5,19,-3.2,1.8
2.5,19,-4.1,1.4
2.5,19,-4.9,1.1
2.5,19,-5.6,0.9
2.6,19,-5.9,1
2.6,19,-6,1.5
2.6,20,-5.8,2.1
2.6,20,-5.3,2.9
2.6,20,-4.6,3.8
2.6,20,-3.8,4.5
2.6,20,-2.9,4.9
2.6,20,-2.2,5
2.6,20,-1.5,4.7
2.6,20,-1,4.1
2.6,20,-0.6,3.2
2.6,20,-0.3,2.1
2.6,20,-0.1,0.8
2.6,20,0.1,-0.5
2.6,20,0.1,-1.8
2.6,20,0,-2.9
2.6,20,-0.2,-3.8
2.6,20,-0.4,-4.5
2.6,20,-0.6,-4.8
2.6,20,-0.8,-4.7
2.6,20,-0.8,-4.3
2.6,20,-0.7,-3.4
2.6,20,-0.6,-2.2
2.6,20,-0.3,-0.7
2.6,20,0,1.2
2.7,20,0.4,3.2
2.7,20,0.8,5.4
2.7,20,1.4,7.6
2.7,20,2,9.8
2.7,20,2.7,11.9
2.7,20,3.6,13.8
2.7,20,4.6,15.4
2.7,20,5.7,16.7
2.7,20,6.8,17.6
2.7,21,7.8,18.1
2.7,21,8.7,18
2.7,21,9.2,17.6
2.7,21,9.3,16.8
2.7,21,9.2,15.7
2.7,21,8.8,14.5
2.7,21,8.2,13.2
2.7,21,7.4,11.9
2.7,21,6.5,10.6
2.7,21,5.3,9.4
2.7,21,4,8.2
2.7,21,2.5,7
2.7,21,1,5.9
2.7,21,-0.6,4.7
2.7,21,-2.2,3.5
2.7,21,-3.7,2.2
2.8,21,-5.2,0.8
2.8,21,-6.6,-0.8
2.8,21,-8,-2.6
2.8,21,-9.3,-4.4
2.8,21,-10.4,-6.2
2.8,21,-11.5,-7.9
2.8,21,-12.3,-9.4
2.8,21,-13.1,-10.7
2.8,21,-13.6,-11.8
2.8,21,-13.9,-12.6
2.8,21,-13.9,-13.1
2.8,21,-13.6,-13.2
2.8,21,-12.8,-12.8
2.8,21,-11.8,-12.1
2.8,21,-10.5,-11
2.8,21,-9.1,-9.6
2.8,22,-7.6,-8
2.8,22,-6,-6.3
2.8,22,-4.2,-4.4
2.8,22,-2.3,-2.5
2.8,22,-0.2,-0.4
2.8,22,2,1.8
2.8,22,4.2,4
2.8,22,6.5,6.3
2.8,22,8.7,8.6
2.9,22,10.6,10.7
2.9,22,12.2,12.7
2.9,22,13.4,14.5
2.9,22,14.2,16
2.9,22,14.7,17.1
2.9,22,14.9,18
2.9,22,14.9,18.5
2.9,22,14.9,18.7
2.9,22,14.8,18.6
2.9,22,14.7,18.4
2.9,22,14.6,18.2
2.9,22,14.7,17.9
2.9,22,14.7,17.7
2.9,22,14.7,17.5
2.9,22,14.7,17.3
2.9,22,14.7,17.2
2.9,22,14.8,17.2
2.9,22,14.8,17.1
2.9,22,15,17.1
2.9,22,15.3,17.1
2.9,22,15.7,17.1
2.9,22,16.3,17.2
2.9,22,17,17.2
2.9,23,17.6,17.4
2.9,23,18.3,17.8
3,23,18.9,18.2
3,23,19.6,18.8
3,23,20.1,19.4
3,23,20.7,19.9
3,23,21.2,20.4
3,23,21.8,20.8
3,23,22.4,21.2
3,23,23,21.4
3,23,23.5,21.4
3,23,23.9,21.2
3,23,24.1,20.9
3,23,24.1,20.4
3,23,23.9,19.9
3,23,23.6,19.3
3,23,23,18.8
3,23,22.4,18.2
3,23,21.8,17.7
3,23,21.3,17.2
3,23,20.8,16.5
3,23,20.3,15.6
3,23,19.8,14.7
3,23,19.2,13.7
3,23,18.6,12.9
3,23,17.9,12.1
3,23,17.1,11.4
3.1,23,16.2,10.8
3.1,23,15.1,10
3.1,23,13.9,9.3
3.1,23,12.4,8.4
3.1,23,10.9,7.4
3.1,24,9.3,6.4
3.1,24,7.8,5.4
3.1,24,6.5,4.4
3.1,24,5.3,3.3
3.1,24,4.2,2.2
3.1,24,3.1,1.1
3.1,24,2.1,0
3.1,24,1.2,-1
3.1,24,0.3,-1.9
3.1,24,-0.6,-2.9
3.1,24,-1.6,-3.7
3.1,24,-2.8,-4.5
3.1,24,-4,-5.3
3.1,24,-5.3,-6
3.1,24,-6.5,-6.5
3.1,24,-7.5,-6.9
3.1,24,-8.4,-7.1
3.1,24,-9.1,-7.4
3.1,24,-9.8,-7.6
3.1,24,-10.5,-8
3.2,24,-11.2,-8.4
3.2,24,-11.7,-8.9
3.2,24,-12.2,-9.5
3.2,24,-12.5,-10.1
3.2,24,-12.9,-10.6
3.2,24,-13.3,-11.2
3.2,24,-13.6,-11.7
3.2,24,-14,-12.3
3.2,24,-14.3,-12.7
3.2,24,-14.6,-13
3.2,24,-14.9,-13.1
3.2,24,-15.1,-13
3.2,25,-15.3,-12.8
3.2,25,-15.6,-12.5
3.2,25,-16.1,-12.3
3.2,25,-16.6,-12.3
3.2,25,-17.1,-12.4
3.2,25,-17.5,-12.6
3.2,25,-17.7,-12.9
3.2,25,-17.8,-13.2
3.2,25,-17.6,-13.4
3.2,25,-17.2,-13.5
3.2,25,-16.7,-13.5
3.2,25,-16.1,-13.5
3.2,25,-15.4,-13.3
3.3,25,-14.6,-13
3.3,25,-13.8,-12.7
3.3,25,-13,-12.4
3.3,25,-12.4,-12.1
3.3,25,-11.8,-11.8
3.3,25,-11.4,-11.5
3.3,25,-11.1,-11.1
3.3,25,-10.8,-10.6
3.3,25,-10.4,-9.9
3.3,25,-10.1,-9
3.3,25,-9.7,-8.2
3.3,25,-9.3,-7.3
3.3,25,-9,-6.5
3.3,25,-8.8,-5.8
3.3,25,-8.7,-5.1
3.3,25,-8.7,-4.5
3.3,25,-8.8,-3.9
3.3,25,-9,-3.4
3.3,25,-9.2,-2.8
3.3,26,-9.4,-2.1
3.3,26,-9.6,-1.4
3.3,26,-9.6,-0.4
3.3,26,-9.4,0.7
3.3,26,-9.1,2
3.3,26,-8.6,3.4
3.4,26,-8,4.8
3.4,26,-7.3,6.1
3.4,26,-6.4,7.3
3.4,26,-5.4,8.4
3.4,26,-4.4,9.2
3.4,26,-3.3,9.8
3.4,26,-2.4,10.2
3.4,26,-1.5,10.5
3.4,26,-0.7,10.6
3.4,26,-0.1,10.7
3.4,26,0.4,10.7
3.4,26,0.7,10.7
3.4,26,1,10.7
3.4,26,1.1,10.7
3.4,26,1.2,10.8
3.4,26,1.2,10.8
3.4,26,1.1,10.9
3.4,26,1,11
3.4,26,0.9,11
3.4,26,0.8,11
3.4,26,0.7,10.9
3.4,26,0.7,10.7
3.4,26,0.6,10.3
3.4,26,0.7,9.9
3.4,26,0.7,9.5
3.5,26,0.9,9.1
3.5,27,1.1,8.6
3.5,27,1.4,8.2
3.5,27,1.8,7.8
3.5,27,2.2,7.5
3.5,27,2.7,7.2
3.5,27,3.3,7
3.5,27,4,6.9
3.5,27,4.8,6.8
3.5,27,5.7,6.8
3.5,27,6.7,6.8
3.5,27,7.9,6.9
3.5,27,9.1,7
3.5,27,10.3,7.2
3.5,27,11.5,7.4
3.5,27,12.7,7.6
3.5,27,13.9,7.9
3.5,27,15,8.3
3.5,27,16,8.6
3.5,27,16.9,9
3.5,27,17.7,9.3
3.5,27,18.3,9.6
3.5,27,18.7,9.8
3.5,27,18.9,9.9
3.5,27,19,9.7
3.6,27,18.9,9.3
3.6,27,18.7,8.7
3.6,27,18.4,8
3.6,27,17.9,7.2
3.6,27,17.3,6.4
3.6,27,16.7,5.7
3.6,27,16,5.1
3.6,27,15.4,4.7
3.6,28,14.7,4.4
3.6,28,14.1,4.2
3.6,28,13.5,4.2
3.6,28,12.9,4.2
3.6,28,12.4,4.3
3.6,28,11.9,4.5
3.6,28,11.4,4.6
3.6,28,10.9,4.8
3.6,28,10.5,5
3.6,28,10,5.3
3.6,28,9.4,5.5
3.6,28,8.9,5.8
3.6,28,8.2,6.1
3.6,28,7.6,6.4
3.6,28,7,6.6
3.6,28,6.5,6.9
3.6,28,6.1,7.2
3.7,28,5.9,7.5
3.7,28,5.8,7.7
3.7,28,5.9,7.9
3.7,28,6.1,7.9
3.7,28,6.5,7.9
3.7,28,6.9,7.7
3.7,28,7.4,7.4
3.7,28,7.9,7.1
3.7,28,8.3,6.7
3.7,28,8.5,6.2
3.7,28,8.4,5.6
3.7,28,7.9,4.8
3.7,28,7,3.7
3.7,28,5.5,2.3
3.7,28,3.5,0.6
3.7,29,0.9,-1.5
3.7,29,-2.2,-4
3.7,29,-5.6,-7
3.7,29,-9.4,-10.4
3.7,29,-13.5,-14.2
3.7,29,-17.7,-18.3
3.7,29,-21.8,-22.4
3.7,29,-25.7,-26.3
3.7,29,-29.1,-29.8
3.7,29,-31.9,-32.7
3.8,29,-34,-35
3.8,29,-35.3,-36.5
3.8,29,-35.8,-37.2
3.8,29,-35.6,-37.2
3.8,29,-34.7,-36.4
3.8,29,-33.2,-35.1
3.8,29,-31.2,-33.1
3.8,29,-28.9,-30.7
3.8,29,-26.4,-27.9
3.8,29,-23.7,-24.9
3.8,29,-21.1,-21.7
3.8,29,-18.4,-18.4
3.8,29,-15.7,-15.1
3.8,29,-13.2,-11.9
3.8,29,-10.7,-8.9
3.8,29,-8.5,-6.1
3.8,29,-6.3,-3.6
3.8,29,-4.3,-1.3
3.8,29,-2.5,0.7
3.8,29,-0.8,2.3
3.8,29,0.8,3.7
3.8,29,2.2,4.7
3.8,30,3.5,5.5
3.8,30,4.7,5.9
3.8,30,5.7,6.1
3.9,30,6.5,6.1
3.9,30,7.1,5.9
3.9,30,7.7,5.7
3.9,30,8.1,5.5
3.9,30,8.5,5.4
3.9,30,9,5.6
3.9,30,9.6,6.1
3.9,30,10.2,6.8
3.9,30,10.9,7.8
3.9,30,11.5,8.9
3.9,30,12.1,10.3
3.9,30,12.7,11.7
3.9,30,13.3,13.1
3.9,30,13.7,14.4
3.9,30,14,15.5
3.9,30,14.1,16.2
3.9,30,14.2,16.8
3.9,30,14.4,16.9
3.9,30,14.8,16.8
3.9,30,15.5,16.2
3.9,30,16.5,15
3.9,30,17.7,13.2
3.9,30,19.2,10.6
3.9,30,20.9,7.1
3.9,30,22.7,2.9
4,30,24.5,-1.9
4,30,26.1,-7.4
4,30,27.6,-13.4
4,30,28.9,-20
4,31,29.9,-27
4,31,30.5,-34.2
4,31,30.9,-41.4
4,31,30.9,-48.4
4,31,30.7,-54.8
4,31,30.4,-60.4
4,31,30.1,-65.2
4,31,30,-68.8
4,31,30,-71.4
4,31,30.1,-72.8
4,31,30.3,-73.3
4,31,30.4,-72.7
4,31,30.3,-71.2
4,31,30.2,-68.7
4,31,29.8,-65.2
4,31,29.2,-60.6
4,31,28.3,-55
4,31,27.1,-48.2
4,31,25.7,-40.5
4,31,23.9,-32.1
4,31,22,-23.1
4.1,31,19.8,-13.8
4.1,31,17.5,-4.3
4.1,31,15.2,5.1
4.1,31,13,14.4
4.1,31,10.9,23.3
4.1,31,9,31.8
4.1,31,7.1,39.5
4.1,31,5.4,46.6
4.1,31,3.7,52.9
4.1,31,2.2,58.2
4.1,31,0.6,62.7
4.1,32,-0.8,66.3
4.1,32,-2.1,69.1
4.1,32,-3.3,71.1
4.1,32,-4.3,72.6
4.1,32,-5.2,73.7
4.1,32,-5.8,74.4
4.1,32,-6.3,74.8
4.1,32,-6.7,75.2
4.1,32,-6.9,75.3
4.1,32,-7.2,75.3
4.1,32,-7.4,75
4.1,32,-7.7,74.6
4.1,32,-8,73.9
4.1,32,-8.4,73.1
4.2,32,-8.9,72.1
4.2,32,-9.4,70.9
4.2,32,-10.1,69.6
4.2,32,-10.9,68.1
4.2,32,-11.8,66.5
4.2,32,-12.8,64.8
4.2,32,-13.9,63
4.2,32,-15,61
4.2,32,-16.1,58.8
4.2,32,-17.1,56.5
4.2,32,-18,54.1
4.2,32,-18.8,51.6
4.2,32,-19.6,49.2
4.2,32,-20.3,46.7
4.2,32,-20.9,44.2
4.2,32,-21.5,41.8
4.2,32,-22,39.5
4.2,32,-22.4,37.2
4.2,33,-22.7,35.1
4.2,33,-23,33.1
4.2,33,-23.3,31.3
4.2,33,-23.5,29.5
4.2,33,-23.6,27.8
4.2,33,-23.6,26.2
4.2,33,-23.7,24.5
4.3,33,-23.7,22.8
4.3,33,-23.6,21.1
4.3,33,-23.6,19.5
4.3,33,-23.5,17.9
4.3,33,-23.4,16.4
4.3,33,-23.3,15
4.3,33,-23.2,13.7
4.3,33,-23.2,12.5
4.3,33,-23.2,11.4
4.3,33,-23.1,10.3
4.3,33,-22.9,9.4
4.3,33,-22.7,8.6
4.3,33,-22.4,7.8
4.3,33,-22.1,7
4.3,33,-21.8,6.1
4.3,33,-21.6,5
4.3,33,-21.5,3.8
4.3,33,-21.4,2.3
4.3,33,-21.4,0.7
4.3,33,-21.4,-1
4.3,33,-21.4,-2.9
4.3,33,-21.3,-4.9
4.3,33,-21.2,-7
4.3,33,-21,-9
4.3,33,-20.7,-10.9
4.4,34,-20.4,-12.6
4.4,34,-19.9,-14.1
4.4,34,-19.3,-15.5
4.4,34,-18.5,-16.7
4.4,34,-17.6,-17.7
4.4,34,-16.6,-18.5
4.4,34,-15.6,-19.3
4.4,34,-14.6,-20
4.4,34,-13.5,-20.7
4.4,34,-12.4,-21.3
4.4,34,-11.3,-21.9
4.4,34,-10.2,-22.4
4.4,34,-9.1,-22.9
4.4,34,-8.1,-23.4
4.4,34,-7,-23.8
4.4,34,-5.9,-24.3
4.4,34,-4.9,-24.7
4.4,34,-4.1,-25.2
4.4,34,-3.3,-25.6
4.4,34,-2.7,-26
4.4,34,-2.2,-26.4
4.4,34,-1.8,-26.8
4.4,34,-1.5,-27.1
4.4,34,-1.3,-27.4
4.4,34,-1.1,-27.7
4.5,34,-0.9,-27.9
4.5,34,-0.7,-28
4.5,34,-0.5,-28.1
4.5,34,-0.4,-28.4
4.5,34,-0.2,-28.7
4.5,34,-0.1,-29.1
4.5,34,-0.2,-29.6
4.5,35,-0.3,-30.3
4.5,35,-0.6,-31.1
4.5,35,-1,-31.9
4.5,35,-1.4,-32.6
4.5,35,-1.8,-33.2
4.5,35,-2.1,-33.6
4.5,35,-2.1,-33.8
4.5,35,-2,-33.8
4.5,35,-1.7,-33.4
4.5,35,-1.3,-32.8
4.5,35,-0.8,-31.9
4.5,35,-0.2,-30.8
4.5,35,0.4,-29.6
4.5,35,1.1,-28.3
4.5,35,1.9,-27
4.5,35,2.6,-25.8
4.5,35,3.4,-24.8
4.5,35,4.2,-24.1
4.6,35,5,-23.5
4.6,35,5.9,-23.2
4.6,35,6.8,-23.1
4.6,35,7.8,-23.1
4.6,35,8.8,-23.3
4.6,35,9.9,-23.6
4.6,35,10.9,-23.9
4.6,35,11.9,-24.1
4.6,35,12.7,-24.3
4.6,35,13.4,-24.5
4.6,35,13.8,-24.7
4.6,35,13.9,-24.8
4.6,35,13.8,-24.8
4.6,35,13.3,-24.7
4.6,36,12.6,-24.5
4.6,36,11.7,-24.2
4.6,36,10.6,-23.9
4.6,36,9.5,-23.5
4.6,36,8.5,-23
4.6,36,7.5,-22.4
4.6,36,6.6,-21.7
4.6,36,6,-21.1
4.6,36,5.5,-20.6
4.6,36,5.2,-20.1
4.6,36,5.2,-19.8
4.7,36,5.4,-19.5
4.7,36,5.7,-19.4
4.7,36,6.1,-19.2
4.7,36,6.5,-18.9
4.7,36,7,-18.5
4.7,36,7.4,-18
4.7,36,7.8,-17.2
4.7,36,8,-16.4
4.7,36,8.1,-15.4
4.7,36,8,-14.5
4.7,36,7.8,-13.6
4.7,36,7.5,-12.7
4.7,36,7.1,-11.9
4.7,36,6.7,-11.1
4.7,36,6.4,-10.4
4.7,36,6.1,-9.8
4.7,36,5.9,-9.4
4.7,36,5.7,-9
4.7,36,5.5,-8.6
4.7,36,5.3,-8.4
4.7,36,5.1,-8.3
4.7,37,5,-8.2
4.7,37,4.8,-8.2
4.7,37,4.7,-8.2
4.7,37,4.7,-8.2
4.8,37,4.9,-8.2
4.8,37,5.1,-8.1
4.8,37,5.3,-8.1
4.8,37,5.6,-8
4.8,37,5.9,-7.9
4.8,37,6.2,-7.8
4.8,37,6.4,-7.6
4.8,37,6.5,-7.5
4.8,37,6.6,-7.4
4.8,37,6.5,-7.2
4.8,37,6.4,-7
4.8,37,6.2,-6.9
4.8,37,5.8,-6.7
4.8,37,5.4,-6.6
4.8,37,4.8,-6.4
4.8,37,4.2,-6.2
4.8,37,3.6,-5.8
4.8,37,3,-5.3
4.8,37,2.5,-4.7
4.8,37,2,-4
4.8,37,1.7,-3.1
4.8,37,1.5,-2.2
4.8,37,1.4,-1.3
4.8,37,1.3,-0.3
4.8,37,1.4,0.6
4.9,37,1.5,1.5
4.9,37,1.7,2.3
4.9,37,1.9,3.2
4.9,38,2.1,4
4.9,38,2.3,4.8
4.9,38,2.4,5.5
4.9,38,2.5,6
4.9,38,2.4,6.5
4.9,38,2.2,6.8
4.9,38,1.9,7
4.9,38,1.6,7
4.9,38,1.2,6.9
4.9,38,0.8,6.7
4.9,38,0.3,6.5
4.9,38,0,6.2
4.9,38,-0.3,6
4.9,38,-0.5,6
4.9,38,-0.5,6.2
4.9,38,-0.4,6.5
4.9,38,-0.1,7
4.9,38,0.4,7.6
4.9,38,0.9,8.2
4.9,38,1.5,9
4.9,38,2,9.8
4.9,38,2.5,10.8
5,38,2.8,11.8
5,38,3.1,12.7
5,38,3.2,13.6
5,38,3.2,14.4
5,38,3.1,14.9
5,38,2.9,15.3
5,38,2.6,15.4
5,38,2.2,15.5
5,38,1.8,15.4
5,38,1.3,15.3
5,39,0.9,15.3
5,39,0.6,15.2
5,39,0.5,15.2
5,39,0.5,15.4
5,39,0.8,15.6
5,39,1.3,16
5,39,2,16.3
5,39,2.8,16.6
5,39,3.7,16.7
5,39,4.6,16.8
5,39,5.5,16.7
5,39,6.3,16.6
5,39,6.9,16.4
5,39,7.3,16.2
5,39,7.5,16
5.1,39,7.5,15.8
5.1,39,7.3,15.6
5.1,39,6.8,15.3
5.1,39,6.1,14.9
5.1,39,5.2,14.5
5.1,39,4.2,14
5.1,39,3.1,13.5
5.1,39,2,13
5.1,39,0.9,12.6
5.1,39,-0.1,12.1
5.1,39,-1,11.7
5.1,39,-1.6,11.2
5.1,39,-2,10.8
5.1,39,-2.2,10.4
5.1,39,-2.2,10
5.1,39,-2.1,9.6
5.1,39,-1.9,9.2
5.1,40,-1.8,8.7
5.1,40,-1.6,8.2
5.1,40,-1.6,7.6
5.1,40,-1.6,7
5.1,40,-1.7,6.3
5.1,40,-1.9,5.7
5.1,40,-2.1,5.1
5.1,40,-2.4,4.5
5.2,40,-2.6,4
5.2,40,-2.9,3.6
5.2,40,-3.2,3.4
5.2,40,-3.4,3.4
5.2,40,-3.6,3.4
5.2,40,-3.8,3.4
5.2,40,-3.9,3.5
5.2,40,-4,3.6
5.2,40,-4,3.5
5.2,40,-3.9,3.5
5.2,40,-3.7,3.5
5.2,40,-3.2,3.5
5.2,40,-2.6,3.6
5.2,40,-1.8,3.6
5.2,40,-0.8,3.6
5.2,40,0.2,3.6
5.2,40,1.1,3.6
5.2,40,1.9,3.5
5.2,40,2.5,3.4
5.2,40,2.9,3.2
5.2,40,3.1,3.1
5.2,40,3,2.8
5.2,40,2.7,2.4
5.2,40,2.4,1.9
5.2,41,2,1.3
5.3,41,1.7,0.7
5.3,41,1.6,0
5.3,41,1.6,-0.6
5.3,41,1.7,-1.2
5.3,41,1.8,-1.7
5.3,41,1.9,-2.1
5.3,41,2,-2.4
5.3,41,1.9,-2.6
5.3,41,1.8,-2.6
5.3,41,1.5,-2.5
5.3,41,1.1,-2.1
5.3,41,0.7,-1.7
5.3,41,0.2,-1.1
5.3,41,-0.2,-0.5
5.3,41,-0.6,0.2
5.3,41,-0.9,0.8
5.3,41,-1.2,1.4
5.3,41,-1.5,1.8
5.3,41,-1.6,2.2
5.3,41,-1.6,2.5
5.3,41,-1.5,2.6
5.3,41,-1.4,2.7
5.3,41,-1.2,2.7
5.3,41,-1.2,2.6
5.3,41,-1.2,2.4
5.4,41,-1.3,2.2
5.4,41,-1.6,1.9
5.4,41,-1.9,1.5
5.4,41,-2.4,1.1
5.4,41,-2.8,0.7
5.4,41,-3.2,0.3
5.4,42,-3.4,0.1
5.4,42,-3.5,0
5.4,42,-3.3,0.1
5.4,42,-3,0.3
5.4,42,-2.6,0.5
5.4,42,-2.1,0.7
5.4,42,-1.7,0.7
5.4,42,-1.2,0.7
5.4,42,-0.9,0.5
5.4,42,-0.6,0.2
5.4,42,-0.4,-0.3
5.4,42,-0.4,-0.8
5.4,42,-0.4,-1.4
5.4,42,-0.6,-1.9
5.4,42,-1,-2.4
5.4,42,-1.5,-2.8
5.4,42,-2.2,-3.3
5.4,42,-2.9,-3.8
5.4,42,-3.8,-4.3
5.5,42,-4.5,-4.8
5.5,42,-5.2,-5.2
5.5,42,-5.7,-5.5
5.5,42,-6,-5.7
5.5,42,-6.1,-5.6
5.5,42,-6.1,-5.4
5.5,42,-5.9,-4.9
5.5,42,-5.5,-4.3
5.5,42,-5.1,-3.7
5.5,42,-4.6,-3.1
5.5,42,-4,-2.5
5.5,42,-3.4,-1.9
5.5,42,-2.8,-1.4
5.5,43,-2.3,-1
5.5,43,-1.8,-0.7
5.5,43,-1.5,-0.4
5.5,43,-1.2,-0.2
5.5,43,-1,0
5.5,43,-1.1,0
5.5,43,-1.2,0
5.5,43,-1.5,-0.1
5.5,43,-2,-0.2
5.5,43,-2.7,-0.3
5.5,43,-3.4,-0.4
5.5,43,-4.1,-0.5
5.6,43,-4.9,-0.5
5.6,43,-5.5,-0.5
5.6,43,-6.1,-0.5
5.6,43,-6.6,-0.5
5.6,43,-6.9,-0.4
5.6,43,-7.1,-0.4
5.6,43,-7.1,-0.5
5.6,43,-6.9,-0.6
5.6,43,-6.4,-0.9
5.6,43,-5.7,-1.3
5.6,43,-4.9,-1.8
5.6,43,-3.9,-2.2
5.6,43,-2.9,-2.7
5.6,43,-1.9,-3.1
5.6,43,-0.9,-3.5
5.6,43,0,-3.7
5.6,43,0.9,-3.8
5.6,43,1.7,-3.8
5.6,43,2.3,-3.6
5.6,43,2.8,-3.2
5.6,44,3.1,-2.8
5.6,44,3.2,-2.3
5.6,44,3.1,-1.8
5.6,44,2.8,-1.3
5.6,44,2.4,-0.8
5.7,44,1.8,-0.3
5.7,44,1.1,0.2
5.7,44,0.4,0.6
5.7,44,-0.5,1
5.7,44,-1.3,1.4
5.7,44,-2.2,1.7
5.7,44,-3,2
5.7,44,-3.7,2.1
5.7,44,-4.3,2.1
5.7,44,-4.6,1.9
5.7,44,-4.7,1.6
5.7,44,-4.5,1.1
5.7,44,-4.1,0.4
5.7,44,-3.4,-0.2
5.7,44,-2.6,-0.9
5.7,44,-1.7,-1.5
5.7,44,-0.6,-2.1
5.7,44,0.6,-2.6
5.7,44,1.8,-3.1
5.7,44,3,-3.4
5.7,44,4,-3.6
5.7,44,4.9,-3.6
5.7,44,5.5,-3.5
5.7,44,6,-3.2
5.7,44,6.2,-2.8
5.8,44,6.2,-2.4
5.8,44,5.9,-1.9
5.8,45,5.5,-1.5
5.8,45,4.9,-1
5.8,45,4.2,-0.6
5.8,45,3.5,-0.2
5.8,45,2.6,0.2
5.8,45,1.7,0.5
5.8,45,0.8,0.6
5.8,45,-0.1,0.7
5.8,45,-0.9,0.6
5.8,45,-1.6,0.5
5.8,45,-2.1,0.2
5.8,45,-2.6,0
5.8,45,-2.9,-0.4
5.8,45,-3,-0.7
5.8,45,-3,-1.1
5.8,45,-2.9,-1.6
5.8,45,-2.7,-2
5.8,45,-2.4,-2.4
5.8,45,-2.1,-2.7
5.8,45,-1.8,-3
5.8,45,-1.6,-3.1
5.8,45,-1.4,-3.1
5.8,45,-1.2,-3.1
5.9,45,-1,-3.2
5.9,45,-0.9,-3.2
5.9,45,-0.8,-3.3
5.9,45,-0.8,-3.4
5.9,45,-0.6,-3.5
5.9,45,-0.4,-3.5
5.9,45,-0.1,-3.5
5.9,45,0.3,-3.4
5.9,45,0.9,-3.1
5.9,46,1.6,-2.9
5.9,46,2.3,-2.5
5.9,46,3,-2.3
5.9,46,3.7,-2
5.9,46,4.2,-1.8
5.9,46,4.5,-1.6
5.9,46,4.5,-1.6
5.9,46,4.1,-1.7
5.9,46,3.5,-1.9
5.9,46,2.8,-2.1
5.9,46,1.9,-2.2
5.9,46,1.1,-2.3
5.9,46,0.2,-2.4
5.9,46,-0.6,-2.5
5.9,46,-1.3,-2.5
5.9,46,-2,-2.4
6,46,-2.5,-2.3
6,46,-2.9,-2.1
6,46,-3.1,-1.9
6,46,-3.1,-1.6
6,46,-3,-1.2
6,46,-2.7,-0.8
6,46,-2.2,-0.4
6,46,-1.6,-0.1
6,46,-0.9,0.2
6,46,0,0.5
6,46,1,0.8
6,46,2.1,1.1
6,46,3,1.3
6,46,4,1.5
6,46,4.8,1.8
6,46,5.4,2.1
6,47,5.9,2.6
6,47,6.1,3.1
6,47,6.1,3.8
6,47,5.9,4.4
6,47,5.4,5
6,47,4.7,5.6
6,47,3.8,6
6,47,2.9,6.5
6,47,2,6.9
6.1,47,1.4,7.1
6.1,47,0.9,7.2
6.1,47,0.7,7.2
6.1,47,0.7,6.9
6.1,47,0.9,6.4
6.1,47,1.3,5.7
6.1,47,1.7,4.8
6.1,47,2.1,3.8
6.1,47,2.4,2.7
6.1,47,2.7,1.7
6.1,47,2.8,0.8
6.1,47,2.9,0
6.1,47,2.9,-0.5
6.1,47,2.8,-0.8
6.1,47,2.5,-1
6.1,47,2,-1.1
6.1,47,1.5,-1.1
6.1,47,0.7,-1.2
6.1,47,-0.1,-1.3
6.1,47,-1,-1.3
6.1,47,-2.1,-1.4
6.1,47,-3.1,-1.3
6.1,47,-4.3,-1.2
6.1,48,-5.3,-1.1
6.1,48,-6.4,-1
6.2,48,-7.4,-0.8
6.2,48,-8.2,-0.6
6.2,48,-8.9,-0.3
6.2,48,-9.4,-0.1
6.2,48,-9.7,0.2
6.2,48,-9.7,0.6
6.2,48,-9.6,0.9
6.2,48,-9.2,1.2
6.2,48,-8.7,1.3
6.2,48,-8.1,1.3
6.2,48,-7.3,1.3
6.2,48,-6.5,1.2
6.2,48,-5.7,1
6.2,48,-4.8,0.8
6.2,48,-3.8,0.6
6.2,48,-2.9,0.4
6.2,48,-2.1,0.4
6.2,48,-1.2,0.5
6.2,48,-0.5,0.9
6.2,48,0.2,1.3
6.2,48,0.7,1.8
6.2,48,1.1,2.3
6.2,48,1.4,2.8
6.2,48,1.4,3.2
6.2,48,1.4,3.5
6.3,48,1.2,3.7
6.3,48,0.8,3.7
6.3,48,0.4,3.5
6.3,48,0,3.3
6.3,48,-0.4,3
6.3,49,-0.7,2.7
6.3,49,-0.8,2.4
6.3,49,-0.8,2
6.3,49,-0.8,1.7
6.3,49,-0.7,1.3
6.3,49,-0.5,0.9
6.3,49,-0.4,0.5
6.3,49,-0.3,0
6.3,49,-0.2,-0.4
6.3,49,-0.2,-0.9
6.3,49,-0.1,-1.3
6.3,49,-0.1,-1.7
6.3,49,-0.1,-2.1
6.3,49,-0.1,-2.4
6.3,49,-0.2,-2.7
6.3,49,-0.4,-3
6.3,49,-0.6,-3.1
6.3,49,-0.8,-3.2
6.3,49,-1,-3.1
6.3,49,-1.1,-3
6.4,49,-1,-2.8
6.4,49,-0.9,-2.6
6.4,49,-0.8,-2.3
6.4,49,-0.6,-2.1
6.4,49,-0.4,-1.9
6.4,49,-0.3,-1.7
6.4,49,-0.1,-1.6
6.4,49,0.1,-1.4
6.4,49,0.3,-1.1
6.4,49,0.6,-0.8
6.4,49,0.8,-0.3
6.4,49,1,0.1
6.4,50,1.1,0.6
6.4,50,1,0.9
6.4,50,0.8,1.1
6.4,50,0.6,1.2
6.4,50,0.2,1.2
6.4,50,-0.3,1.2
6.4,50,-0.8,1.1
6.4,50,-1.3,1
6.4,50,-1.8,0.9
6.4,50,-2.2,0.8
6.4,50,-2.5,0.7
6.4,50,-2.7,0.4
6.4,50,-2.8,0.1
6.5,50,-2.7,-0.3
6.5,50,-2.5,-0.7
6.5,50,-2.2,-1
6.5,50,-1.8,-1.3
6.5,50,-1.3,-1.5
6.5,50,-0.7,-1.5
6.5,50,-0.2,-1.5
6.5,50,0.4,-1.3
6.5,50,0.8,-1.1
6.5,50,1.1,-0.9
6.5,50,1.2,-0.7
6.5,50,1.2,-0.5
6.5,50,1,-0.2
6.5,50,0.7,0.1
6.5,50,0.4,0.6
6.5,50,0.2,1.1
6.5,50,0,1.6
6.5,50,0,2.2
6.5,50,0.1,2.6
6.5,51,0.2,2.9
6.5,51,0.5,3.1
6.5,51,0.7,3.3
6.5,51,1,3.4
6.5,51,1.3,3.5
6.5,51,1.5,3.6
6.6,51,1.7,3.7
6.6,51,1.8,3.8
6.6,51,1.8,3.7
6.6,51,1.7,3.7
6.6,51,1.6,3.6
6.6,51,1.5,3.5
6.6,51,1.3,3.4
6.6,51,1.1,3.3
6.6,51,0.9,3.2
6.6,51,0.7,3.1
6.6,51,0.4,2.9
6.6,51,0.2,2.7
6.6,51,-0.1,2.4
6.6,51,-0.3,2
6.6,51,-0.5,1.6
6.6,51,-0.7,1.2
6.6,51,-0.8,0.8
6.6,51,-0.8,0.4
6.6,51,-0.8,0
6.6,51,-0.6,-0.5
6.6,51,-0.5,-1
6.6,51,-0.3,-1.5
6.6,51,-0.1,-2.1
6.6,51,0.1,-2.7
6.6,51,0.1,-3.1
6.7,51,0.2,-3.6
6.7,52,0.1,-3.9
6.7,52,0,-4.2
6.7,52,0,-4.4
6.7,52,0,-4.5
6.7,52,0,-4.6
6.7,52,0,-4.6
6.7,52,0.1,-4.7
6.7,52,0.1,-4.6
6.7,52,0.1,-4.5
6.7,52,0,-4.4
6.7,52,-0.2,-4.3
6.7,52,-0.5,-4.2
6.7,52,-0.9,-4
6.7,52,-1.2,-3.8
6.7,52,-1.5,-3.5
6.7,52,-1.6,-3.1
6.7,52,-1.6,-2.6
6.7,52,-1.6,-2.2
6.7,52,-1.5,-1.7
6.7,52,-1.3,-1.3
6.7,52,-1.2,-0.9
6.7,52,-1,-0.6
6.7,52,-0.8,-0.4
6.7,52,-0.6,-0.3
6.8,52,-0.4,-0.2
6.8,52,-0.2,-0.3
6.8,52,0.1,-0.3
6.8,52,0.4,-0.4
6.8,52,0.9,-0.4
6.8,52,1.6,-0.2
6.8,52,2.5,0.2
6.8,52,3.5,0.7
6.8,53,4.6,1.4
6.8,53,5.8,2.2
6.8,53,6.9,3.2
6.8,53,7.9,4.1
6.8,53,8.7,5.1
6.8,53,9.3,5.9
6.8,53,9.6,6.7
6.8,53,9.7,7.3
6.8,53,9.7,7.8
6.8,53,9.4,8.1
6.8,53,8.9,8.2
6.8,53,8.3,8.2
6.8,53,7.6,8
6.8,53,6.8,7.7
6.8,53,6.1,7.2
6.8,53,5.4,6.7
6.8,53,4.8,6
6.9,53,4.3,5.1
6.9,53,3.8,4.1
6.9,53,3.3,3.1
6.9,53,2.9,2
6.9,53,2.4,1
6.9,53,2,0.1
6.9,53,1.6,-0.6
6.9,53,1.4,-1.1
6.9,53,1.2,-1.4
6.9,53,1.1,-1.6
6.9,53,1.1,-1.5
6.9,53,1,-1.2
6.9,53,0.9,-0.9
6.9,53,0.8,-0.4
6.9,53,0.6,0.1
6.9,54,0.4,0.6
6.9,54,0.1,1
6.9,54,-0.2,1.3
6.9,54,-0.6,1.4
6.9,54,-0.9,1.3
6.9,54,-1.2,1.1
6.9,54,-1.5,0.6
6.9,54,-1.7,-0.1
6.9,54,-1.8,-0.9
6.9,54,-2,-1.8
7,54,-2.1,-2.7
7,54,-2.2,-3.5
7,54,-2.2,-4.3
7,54,-2.2,-4.9
7,54,-2.1,-5.4
7,54,-1.9,-5.7
7,54,-1.7,-6
7,54,-1.4,-6.1
7,54,-1,-6.2
7,54,-0.6,-6.3
7,54,-0.1,-6.2
7,54,0.3,-6.1
7,54,0.8,-5.9
7,54,1.2,-5.6
7,54,1.7,-5.3
7,54,2,-4.9
7,54,2.4,-4.5
7,54,2.6,-4.2
7,54,2.8,-3.8
7,54,2.9,-3.5
7,54,2.8,-3.4
7,54,2.6,-3.3
7,55,2.3,-3.4
7,55,1.9,-3.5
7,55,1.5,-3.7
7.1,55,0.9,-3.8
7.1,55,0.3,-3.9
7.1,55,-0.4,-3.9
7.1,55,-1.1,-3.7
7.1,55,-1.9,-3.4
7.1,55,-2.7,-3.1
7.1,55,-3.5,-2.8
7.1,55,-4.1,-2.4
7.1,55,-4.7,-2
7.1,55,-5.1,-1.6
7.1,55,-5.3,-1.3
7.1,55,-5.3,-0.9
7.1,55,-5.1,-0.6
7.1,55,-4.9,-0.4
7.1,55,-4.5,-0.1
7.1,55,-4.1,0.1
7.1,55,-3.5,0.2
7.1,55,-2.9,0.4
7.1,55,-2.2,0.7
7.1,55,-1.4,1
7.1,55,-0.5,1.2
7.1,55,0.4,1.5
7.1,55,1.2,1.6
7.1,55,2,1.6
7.1,55,2.7,1.5
7.2,55,3.4,1.2
7.2,55,4.1,0.8
7.2,55,4.7,0.2
7.2,55,5.3,-0.6
7.2,56,5.9,-1.5
7.2,56,6.7,-2.5
7.2,56,7.7,-3.4
7.2,56,8.9,-4.3
7.2,56,10.5,-5
7.2,56,12.3,-5.4
7.2,56,14.2,-5.6
7.2,56,16.1,-5.2
7.2,56,18.1,-4.2
7.2,56,20.1,-2.5
7.2,56,22.2,0
7.2,56,24.3,3.4
7.2,56,26.4,7.6
7.2,56,28.6,12.6
7.2,56,30.7,18.3
7.2,56,32.7,24.7
7.2,56,34.6,31.5
7.2,56,36.4,38.8
7.2,56,38.2,46.2
7.2,56,39.9,53.6
7.2,56,41.3,60.8
7.3,56,42.3,67.6
7.3,56,42.8,74
7.3,56,42.8,79.8
7.3,56,42.4,85
7.3,56,41.5,89.7
7.3,56,40.3,93.8
7.3,56,38.7,97.2
7.3,56,36.8,100.1
7.3,56,34.6,102.3
7.3,56,32.1,103.9
7.3,56,29.2,105
7.3,57,26.2,105.5
7.3,57,23.1,105.5
7.3,57,20.1,105
7.3,57,17.1,104.1
7.3,57,14.1,102.7
7.3,57,11,100.8
7.3,57,8,98.5
7.3,57,4.9,95.7
7.3,57,1.7,92.5
7.3,57,-1.4,88.8
7.3,57,-4.5,84.7
7.3,57,-7.4,80.2
7.3,57,-10.4,75.4
7.3,57,-13.2,70.2
7.4,57,-16,64.9
7.4,57,-18.6,59.3
7.4,57,-21.2,53.7
7.4,57,-23.5,47.9
7.4,57,-25.5,42.2
7.4,57,-27.2,36.5
7.4,57,-28.5,30.8
7.4,57,-29.4,25.3
7.4,57,-30,19.9
7.4,57,-30.4,14.6
7.4,57,-30.6,9.3
7.4,57,-30.7,4.2
7.4,57,-30.8,-0.9
7.4,57,-30.9,-6
7.4,57,-31.2,-11
7.4,57,-31.5,-16
7.4,57,-31.9,-21
7.4,57,-32.3,-25.9
7.4,58,-32.7,-30.7
7.4,58,-33.1,-35.4
7.4,58,-33.4,-40
7.4,58,-33.7,-44.5
7.4,58,-33.9,-49.1
7.4,58,-34.2,-53.7
7.4,58,-34.4,-58.4
7.5,58,-34.6,-63.1
7.5,58,-34.9,-67.9
7.5,58,-35.1,-72.6
7.5,58,-35.4,-77.3
7.5,58,-35.9,-81.8
7.5,58,-36.4,-86.2
7.5,58,-36.8,-90.4
7.5,58,-37.1,-94.3
7.5,58,-37.3,-98
7.5,58,-37.3,-101.3
7.5,58,-37.3,-104.3
7.5,58,-37.1,-107.1
7.5,58,-36.9,-109.6
7.5,58,-36.6,-111.9
7.5,58,-36.3,-114
7.5,58,-35.8,-115.8
7.5,58,-35.3,-117.5
7.5,58,-34.8,-119
7.5,58,-34.3,-120.4
7.5,58,-33.7,-121.6
7.5,58,-33,-122.7
7.5,58,-32.3,-123.8
7.5,58,-31.5,-124.8
7.5,58,-30.6,-125.7
7.5,58,-29.6,-126.7
7.6,59,-28.7,-127.5
7.6,59,-27.7,-128.3
7.6,59,-26.8,-128.9
7.6,59,-25.9,-129.4
7.6,59,-25.2,-129.6
7.6,59,-24.5,-129.7
7.6,59,-23.9,-129.5
7.6,59,-23.5,-129
7.6,59,-23.2,-128.4
7.6,59,-23.1,-127.5
7.6,59,-23.1,-126.5
7.6,59,-23.2,-125.3
7.6,59,-23.4,-124
7.6,59,-23.5,-122.5
7.6,59,-23.4,-120.8
7.6,59,-23.3,-119
7.6,59,-23,-117.1
7.6,59,-22.5,-115
7.6,59,-22,-112.9
7.6,59,-21.2,-110.6
7.6,59,-20.4,-108.2
7.6,59,-19.6,-105.7
7.6,59,-18.8,-103.1
7.6,59,-17.9,-100.3
7.6,59,-17.1,-97.4
7.7,59,-16.1,-94.1
7.7,59,-15.1,-90.7
7.7,59,-14.1,-86.9
7.7,59,-12.9,-83
7.7,59,-11.7,-79
7.7,59,-10.4,-74.9
7.7,59,-9,-70.8
7.7,60,-7.6,-66.7
7.7,60,-6.2,-62.7
7.7,60,-4.8,-58.8
7.7,60,-3.4,-55
7.7,60,-2.2,-51.3
7.7,60,-1.1,-47.8
7.7,60,-0.1,-44.4
7.7,60,0.7,-41.1
7.7,60,1.3,-37.9
7.7,60,1.8,-34.7
7.7,60,2.2,-31.6
7.7,60,2.6,-28.5
7.7,60,2.9,-25.4
7.7,60,3.2,-22.2
7.7,60,3.6,-18.8
7.7,60,4.1,-15.4
7.7,60,4.6,-11.9
7.7,60,5.3,-8.2
7.8,60,6.1,-4.6
7.8,60,7.1,-0.9
7.8,60,8.1,2.7
7.8,60,9.4,6.2
7.8,60,10.7,9.5
7.8,60,12.2,12.6
7.8,60,13.8,15.6
7.8,60,15.4,18.4
7.8,60,17,21.1
7.8,60,18.5,23.6
7.8,60,19.9,25.9
7.8,60,21,28.2
7.8,60,21.9,30.3
7.8,60,22.6,32.4
7.8,61,23,34.4
7.8,61,23.3,36.3
7.8,61,23.4,38.1
7.8,61,23.4,40
7.8,61,23.4,42
7.8,61,23.3,44
7.8,61,23.2,46
7.8,61,23.1,48.2
7.8,61,22.9,50.4
7.8,61,22.7,52.7
7.8,61,22.5,55
7.9,61,22.4,57.4
7.9,61,22.4,59.6
7.9,61,22.6,61.9
7.9,61,22.9,64.1
7.9,61,23.3,66.1
7.9,61,23.8,68.1
7.9,61,24.3,70
7.9,61,24.9,71.9
7.9,61,25.5,73.6
7.9,61,26,75.2
7.9,61,26.4,76.7
7.9,61,26.7,78.2
7.9,61,27,79.5
7.9,61,27.2,80.8
7.9,61,27.3,82
7.9,61,27.3,83.1
7.9,61,27.2,84.2
7.9,61,27.1,85.2
7.9,61,26.9,86.2
7.9,61,26.6,87.1
7.9,61,26.3,87.9
7.9,62,26.1,88.5
7.9,62,25.9,89
7.9,62,25.8,89.5
7.9,62,25.8,89.7
8,62,25.9,89.9
8,62,26,90
8,62,26.1,90
8,62,26.1,89.9
8,62,25.9,89.7
8,62,25.6,89.3
8,62,25.1,88.7
8,62,24.6,88
8,62,23.9,87
8,62,23.3,85.9
8,62,22.7,84.8
8,62,22.1,83.6
8,62,21.6,82.4
8,62,21.1,81.3
8,62,20.7,80.2
8,62,20.4,79.1
8,62,20.1,78.1
8,62,20,77.1
8,62,19.9,76.1
8,62,19.8,75.1
8,62,19.8,74.2
8,62,19.8,73.2
8,62,19.8,72.2
8,62,19.6,71.3
8,62,19.4,70.3
8.1,62,19.1,69.2
8.1,62,18.7,68.1
8.1,62,18.2,67
8.1,63,17.6,65.8
8.1,63,17,64.5
8.1,63,16.3,63.3
8.1,63,15.7,62.1
8.1,63,15.1,61
8.1,63,14.6,59.9
8.1,63,14,58.9
8.1,63,13.6,58
8.1,63,13.1,57
8.1,63,12.7,56
8.1,63,12.2,54.9
8.1,63,11.8,53.7
8.1,63,11.3,52.4
8.1,63,10.7,50.9
8.1,63,10,49.4
8.1,63,9.3,47.8
8.1,63,8.5,46.1
8.1,63,7.7,44.5
8.1,63,7,42.8
8.1,63,6.2,41.2
8.1,63,5.5,39.5
8.1,63,4.8,37.8
8.2,63,4.1,36.1
8.2,63,3.5,34.3
8.2,63,2.8,32.6
8.2,63,2.2,30.9
8.2,63,1.7,29.3
8.2,63,1.3,27.8
8.2,63,0.9,26.4
8.2,63,0.6,25.2
8.2,63,0.5,24.1
8.2,63,0.4,23.1
8.2,64,0.4,22.2
8.2,64,0.5,21.5
8.2,64,0.6,20.9
8.2,64,0.7,20.3
8.2,64,0.8,19.7
8.2,64,0.8,19.1
8.2,64,0.8,18.5
8.2,64,0.7,17.7
8.2,64,0.5,16.8
8.2,64,0.1,15.7
8.2,64,-0.4,14.4
8.2,64,-1.2,12.9
8.2,64,-2,11.3
8.2,64,-3.1,9.5
8.2,64,-4.2,7.6
8.3,64,-5.3,5.6
8.3,64,-6.3,3.7
8.3,64,-7.2,1.8
8.3,64,-7.9,0
8.3,64,-8.3,-1.7
8.3,64,-8.6,-3.2
8.3,64,-8.6,-4.6
8.3,64,-8.5,-5.8
8.3,64,-8.2,-7
8.3,64,-8,-7.9
8.3,64,-7.7,-8.7
8.3,64,-7.4,-9.3
8.3,64,-7.2,-9.7
8.3,64,-6.9,-10
8.3,64,-6.7,-10.2
8.3,64,-6.5,-10.3
8.3,64,-6.2,-10.3
8.3,65,-5.9,-10.3
8.3,65,-5.5,-10.3
8.3,65,-5.2,-10.2
8.3,65,-4.9,-10.3
8.3,65,-4.7,-10.4
8.3,65,-4.6,-10.6
8.3,65,-4.6,-10.9
8.3,65,-4.6,-11.4
8.4,65,-4.8,-12
8.4,65,-5,-12.7
8.4,65,-5.4,-13.4
8.4,65,-5.7,-14.3
8.4,65,-6.2,-15.3
8.4,65,-6.7,-16.3
8.4,65,-7.1,-17.5
8.4,65,-7.6,-18.6
8.4,65,-8.1,-19.9
8.4,65,-8.5,-21.2
8.4,65,-8.9,-22.5
8.4,65,-9.2,-23.7
8.4,65,-9.4,-24.9
8.4,65,-9.7,-26.1
8.4,65,-9.9,-27.1
8.4,65,-10.1,-28
8.4,65,-10.3,-28.7
8.4,65,-10.5,-29.2
8.4,65,-10.7,-29.5
8.4,65,-10.8,-29.6
8.4,65,-10.9,-29.5
8.4,65,-10.9,-29.2
8.4,65,-10.9,-28.8
8.4,65,-10.9,-28.3
8.4,66,-10.9,-27.8
8.5,66,-10.9,-27.3
8.5,66,-10.9,-26.8
8.5,66,-10.9,-26.4
8.5,66,-11,-26
8.5,66,-11.1,-25.7
8.5,66,-11.2,-25.5
8.5,66,-11.4,-25.5
8.5,66,-11.6,-25.6
8.5,66,-11.8,-25.8
8.5,66,-11.9,-26.2
8.5,66,-11.9,-26.6
8.5,66,-11.9,-27
8.5,66,-11.7,-27.5
8.5,66,-11.5,-28
8.5,66,-11.1,-28.4
8.5,66,-10.6,-28.9
8.5,66,-10,-29.2
8.5,66,-9.2,-29.5
8.5,66,-8.4,-29.7
8.5,66,-7.4,-29.7
8.5,66,-6.4,-29.6
8.5,66,-5.4,-29.4
8.5,66,-4.3,-29
8.5,66,-3.2,-28.6
8.5,66,-2.2,-28
8.6,66,-1.2,-27.3
8.6,66,-0.5,-26.6
8.6,66,0.1,-25.8
8.6,66,0.3,-25.1
8.6,66,0.4,-24.4
8.6,66,0.2,-23.8
8.6,67,-0.3,-23.2
8.6,67,-1,-22.7
8.6,67,-1.9,-22.3
8.6,67,-2.9,-21.9
8.6,67,-4,-21.7
8.6,67,-5.1,-21.4
8.6,67,-6.1,-21.3
8.6,67,-6.9,-21.2
8.6,67,-7.6,-21.2
8.6,67,-8.1,-21.2
8.6,67,-8.3,-21.3
8.6,67,-8.2,-21.4
8.6,67,-7.9,-21.6
8.6,67,-7.4,-21.7
8.6,67,-6.8,-21.9
8.6,67,-6,-22
8.6,67,-5.2,-22
8.6,67,-4.3,-21.9
8.6,67,-3.4,-21.7
8.7,67,-2.5,-21.4
8.7,67,-1.7,-21
8.7,67,-1,-20.5
8.7,67,-0.4,-19.9
8.7,67,0.1,-19.2
8.7,67,0.4,-18.3
8.7,67,0.7,-17.2
8.7,67,1,-16
8.7,67,1.2,-14.6
8.7,67,1.4,-13.1
8.7,67,1.5,-11.6
8.7,67,1.6,-10.3
8.7,67,1.6,-9.1
8.7,68,1.5,-8.2
8.7,68,1.4,-7.7
8.7,68,1.3,-7.5
8.7,68,1.2,-7.6
8.7,68,1.1,-7.9
8.7,68,0.9,-8.5
8.7,68,0.7,-9.2
8.7,68,0.5,-10
8.7,68,0.2,-10.8
8.7,68,-0.1,-11.6
8.7,68,-0.4,-12.3
8.7,68,-0.7,-12.9
8.8,68,-1,-13.3
8.8,68,-1.2,-13.6
8.8,68,-1.4,-13.6
8.8,68,-1.6,-13.4
8.8,68,-1.7,-12.9
8.8,68,-1.8,-12.2
8.8,68,-1.9,-11.4
8.8,68,-1.8,-10.4
8.8,68,-1.6,-9.3
8.8,68,-1.4,-8.2
8.8,68,-1.1,-7.1
8.8,68,-0.8,-6.2
8.8,68,-0.6,-5.3
8.8,68,-0.4,-4.7
8.8,68,-0.3,-4.2
8.8,68,-0.2,-3.9
8.8,68,-0.3,-3.8
8.8,68,-0.4,-3.8
8.8,68,-0.7,-4
8.8,68,-1.1,-4.2
8.8,69,-1.5,-4.4
8.8,69,-2,-4.7
8.8,69,-2.4,-5
8.8,69,-2.9,-5.4
8.8,69,-3.3,-5.7
8.9,69,-3.7,-5.9
8.9,69,-4,-6
8.9,69,-4.2,-6
8.9,69,-4.5,-5.9
8.9,69,-4.7,-5.6
8.9,69,-4.8,-5.2
8.9,69,-4.8,-4.6
8.9,69,-4.7,-4
8.9,69,-4.6,-3.3
8.9,69,-4.4,-2.7
8.9,69,-4.1,-2.2
8.9,69,-3.8,-1.8
8.9,69,-3.6,-1.4
8.9,69,-3.3,-1.1
8.9,69,-3.1,-0.8
8.9,69,-2.8,-0.6
8.9,69,-2.6,-0.3
8.9,69,-2.4,0
8.9,69,-2.3,0.3
8.9,69,-2.1,0.6
8.9,69,-2,0.9
8.9,69,-1.9,1.1
8.9,69,-1.8,1.3
8.9,69,-1.7,1.5
8.9,69,-1.6,1.6
9,69,-1.4,1.6
9,69,-1.2,1.7
9,70,-0.9,1.7
9,70,-0.6,1.6
9,70,-0.3,1.6
9,70,0.1,1.6
9,70,0.6,1.7
9,70,1,1.7
9,70,1.5,1.8
9,70,2,1.9
9,70,2.4,2.1
9,70,2.7,2.2
9,70,2.9,2.4
9,70,3,2.5
9,70,3.1,2.8
9,70,3.2,3
9,70,3.3,3.4
9,70,3.4,3.7
9,70,3.4,4
9,70,3.4,4.3
9,70,3.3,4.4
9,70,3.1,4.4
9,70,2.8,4.3
9,70,2.4,4.1
9,70,2,3.9
9.1,70,1.7,3.7
9.1,70,1.4,3.5
9.1,70,1.1,3.4
9.1,70,0.7,3.3
9.1,70,0.4,3.3
9.1,70,0.1,3.4
9.1,70,-0.3,3.6
9.1,70,-0.6,3.8
9.1,70,-1.1,4.1
9.1,71,-1.5,4.4
9.1,71,-1.9,4.6
9.1,71,-2.4,4.9
9.1,71,-2.7,5.3
9.1,71,-2.9,5.6
9.1,71,-3,5.9
9.1,71,-2.9,6.1
9.1,71,-2.7,6.3
9.1,71,-2.4,6.4
9.1,71,-2,6.4
9.1,71,-1.5,6.2
9.1,71,-1,5.9
9.1,71,-0.6,5.6
9.1,71,-0.2,5.3
9.1,71,0.1,5
9.1,71,0.3,4.8
9.2,71,0.4,4.7
9.2,71,0.3,4.6
9.2,71,0.1,4.5
9.2,71,-0.2,4.3
9.2,71,-0.6,4.1
9.2,71,-1,3.9
9.2,71,-1.3,3.7
9.2,71,-1.6,3.4
9.2,71,-1.8,3.2
9.2,71,-1.9,2.9
9.2,71,-1.9,2.6
9.2,71,-1.9,2.3
9.2,71,-1.9,2
9.2,71,-1.9,1.7
9.2,71,-1.9,1.4
9.2,71,-1.9,1.1
9.2,72,-1.9,0.8
9.2,72,-1.9,0.6
9.2,72,-1.9,0.4
9.2,72,-2,0.2
9.2,72,-1.9,0
9.2,72,-1.9,-0.1
9.2,72,-1.8,-0.3
9.2,72,-1.7,-0.4
9.2,72,-1.6,-0.6
9.3,72,-1.5,-0.7
9.3,72,-1.4,-0.9
9.3,72,-1.3,-1
9.3,72,-1.2,-1.2
9.3,72,-1.2,-1.4
9.3,72,-1.1,-1.7
9.3,72,-1.1,-1.9
9.3,72,-1,-2.2
9.3,72,-1,-2.6
9.3,72,-1.1,-3
9.3,72,-1.1,-3.4
9.3,72,-1.2,-3.8
9.3,72,-1.3,-4.2
9.3,72,-1.4,-4.5
9.3,72,-1.4,-4.8
9.3,72,-1.3,-4.9
9.3,72,-1.1,-5
9.3,72,-0.9,-5
9.3,72,-0.6,-4.9
9.3,72,-0.3,-4.8
9.3,72,0.1,-4.7
9.3,72,0.5,-4.5
9.3,72,0.8,-4.5
9.3,73,1.1,-4.4
9.3,73,1.4,-4.4
9.4,73,1.6,-4.4
9.4,73,1.7,-4.4
9.4,73,1.8,-4.3
9.4,73,1.7,-4.2
9.4,73,1.5,-4
9.4,73,1.1,-3.7
9.4,73,0.6,-3.3
9.4,73,0,-2.9
9.4,73,-0.6,-2.3
9.4,73,-1.2,-1.6
9.4,73,-1.6,-0.9
9.4,73,-1.9,-0.1
9.4,73,-1.9,0.6
9.4,73,-1.8,1.3
9.4,73,-1.6,2
9.4,73,-1.1,2.4
9.4,73,-0.6,2.7
9.4,73,0.1,2.7
9.4,73,0.7,2.5
9.4,73,1.2,2.2
9.4,73,1.6,1.6
9.4,73,1.9,0.8
9.4,73,2,-0.1
9.4,73,2,-1
9.4,73,1.9,-2
9.5,73,1.7,-2.9
9.5,73,1.5,-3.8
9.5,73,1.2,-4.5
9.5,73,0.8,-5.1
9.5,73,0.4,-5.5
9.5,74,0.1,-5.7
9.5,74,-0.1,-5.7
9.5,74,-0.3,-5.5
9.5,74,-0.3,-5.2
9.5,74,-0.3,-4.8
9.5,74,-0.1,-4.2
9.5,74,0.1,-3.5
9.5,74,0.4,-2.8
9.5,74,0.8,-2.1
9.5,74,1.3,-1.4
9.5,74,1.7,-0.7
9.5,74,2.2,-0.2
9.5,74,2.6,0.3
9.5,74,3.1,0.7
9.5,74,3.5,0.9
9.5,74,3.8,1
9.5,74,4.1,0.9
9.5,74,4.3,0.7
9.5,74,4.4,0.4
9.5,74,4.5,0
9.6,74,4.6,-0.5
9.6,74,4.6,-1.1
9.6,74,4.6,-1.7
9.6,74,4.6,-2.4
9.6,74,4.7,-3.2
9.6,74,4.8,-3.9
9.6,74,4.9,-4.6
9.6,74,5,-5.3
9.6,74,5.2,-5.9
9.6,74,5.3,-6.5
9.6,74,5.4,-7
9.6,74,5.5,-7.5
9.6,75,5.6,-7.8
9.6,75,5.7,-8
9.6,75,5.7,-8.1
9.6,75,5.6,-8.1
9.6,75,5.4,-7.9
9.6,75,5.1,-7.5
9.6,75,4.7,-7.1
9.6,75,4.2,-6.5
9.6,75,3.6,-5.8
9.6,75,2.9,-5
9.6,75,2.2,-4.1
9.6,75,1.6,-3.1
9.6,75,1,-2.1
9.7,75,0.5,-1.2
9.7,75,0,-0.4
9.7,75,-0.4,0.3
9.7,75,-0.7,0.9
9.7,75,-0.9,1.4
9.7,75,-1.1,1.8
9.7,75,-1.2,2
9.7,75,-1.3,2.1
9.7,75,-1.4,2.1
9.7,75,-1.5,2
9.7,75,-1.5,1.9
9.7,75,-1.6,1.7
9.7,75,-1.6,1.6
9.7,75,-1.6,1.5
9.7,75,-1.5,1.4
9.7,75,-1.5,1.4
9.7,75,-1.4,1.6
9.7,75,-1.3,1.8
9.7,75,-1.2,2
9.7,76,-1.1,2.3
9.7,76,-0.9,2.7
9.7,76,-0.7,3.2
9.7,76,-0.5,3.8
9.7,76,-0.3,4.3
9.7,76,-0.1,4.8
9.8,76,0.2,5.2
9.8,76,0.5,5.5
9.8,76,0.8,5.6
9.8,76,1.2,5.6
9.8,76,1.6,5.5
9.8,76,2.1,5.3
9.8,76,2.5,5.1
9.8,76,2.9,4.8
9.8,76,3.2,4.4
9.8,76,3.4,4.2
9.8,76,3.6,3.9
9.8,76,3.7,3.7
9.8,76,3.7,3.5
9.8,76,3.7,3.3
9.8,76,3.4,3.2
9.8,76,3,3
9.8,76,2.4,2.8
9.8,76,1.7,2.5
9.8,76,0.9,2.2
9.8,76,0.2,2
9.8,76,-0.4,1.9
9.8,76,-0.8,1.8
9.8,76,-0.9,2
9.8,76,-0.8,2.2
9.8,76,-0.6,2.6
9.9,76,-0.3,3
9.9,77,0,3.5
9.9,77,0.5,4
9.9,77,0.9,4.4
9.9,77,1.2,4.7
9.9,77,1.6,5
9.9,77,1.9,5.3
9.9,77,2.2,5.4
9.9,77,2.4,5.5
9.9,77,2.5,5.4
9.9,77,2.5,5.2
9.9,77,2.4,4.8
9.9,77,2.1,4.4
9.9,77,1.6,3.9
9.9,77,1,3.4
9.9,77,0.4,2.8
9.9,77,-0.3,2.2
9.9,77,-1,1.6
9.9,77,-1.7,1
9.9,77,-2.4,0.4
9.9,77,-3,0
9.9,77,-3.6,-0.4
9.9,77,-4.1,-0.6
9.9,77,-4.5,-0.8
9.9,77,-4.8,-0.9
10,77,-5.1,-1
10,77,-5.2,-1.1
10,77,-5.3,-1.1
10,77,-5.4,-1.1
10,77,-5.4,-1
10,77,-5.6,-1
10,77,-5.8,-0.9
10,77,-6.1,-0.8
10,78,-6.4,-0.6
10,78,-6.6,-0.4
10,78,-6.8,-0.1
10,78,-6.8,0.3
10,78,-6.6,0.7
10,78,-6.1,1.4
10,78,-5.5,2.1
10,78,-4.7,2.8
10,78,-3.8,3.6
10,78,-2.7,4.4
10,78,-1.6,5.2
10,78,-0.5,5.8
10,78,0.6,6.4
10,78,1.6,6.8
10,78,2.4,7
10,78,3,7.1
10,78,3.5,7
10.1,78,3.7,6.7
10.1,78,3.7,6.2
10.1,78,3.4,5.6
10.1,78,2.9,4.9
10.1,78,2.3,4.2
10.1,78,1.5,3.5
10.1,78,0.8,2.8
10.1,78,0.2,2.1
10.1,78,-0.4,1.4
10.1,78,-0.9,0.7
10.1,78,-1.1,0.2
10.1,78,-1.2,-0.3
10.1,78,-1.1,-0.6
10.1,78,-0.9,-0.7
10.1,78,-0.5,-0.6
10.1,79,-0.1,-0.4
10.1,79,0.4,-0.2
10.1,79,0.9,0.1
10.1,79,1.3,0.4
10.1,79,1.5,0.7
10.1,79,1.7,0.9
10.1,79,1.7,0.9
10.1,79,1.6,0.9
10.1,79,1.4,0.7
10.1,79,1.1,0.4
10.2,79,0.7,0
10.2,79,0.3,-0.7
10.2,79,-0.2,-1.4
10.2,79,-0.7,-2.2
10.2,79,-1.2,-3
10.2,79,-1.7,-3.7
10.2,79,-2,-4.4
10.2,79,-2.3,-4.8
10.2,79,-2.4,-4.9
10.2,79,-2.4,-4.9
10.2,79,-2.1,-4.6
10.2,79,-1.8,-4.1
10.2,79,-1.3,-3.5
10.2,79,-0.7,-2.8
10.2,79,0,-2.1
10.2,79,0.6,-1.4
10.2,79,1.2,-0.7
10.2,79,1.7,-0.2
10.2,79,2,0.3
10.2,79,2.3,0.6
10.2,79,2.4,0.8
10.2,79,2.4,1
10.2,80,2.2,1
10.2,80,2,1
10.2,80,1.8,0.9
10.3,80,1.5,0.8
10.3,80,1.3,0.6
10.3,80,1,0.5
10.3,80,0.8,0.3
10.3,80,0.6,0.1
10.3,80,0.4,-0.1
10.3,80,0.5,-0.2
10.3,80,0.6,-0.4
10.3,80,0.9,-0.5
10.3,80,1.3,-0.7
10.3,80,1.7,-0.7
10.3,80,2.2,-0.7
10.3,80,2.7,-0.7
10.3,80,3.1,-0.5
10.3,80,3.5,-0.4
10.3,80,3.7,-0.3
10.3,80,3.7,-0.3
10.3,80,3.6,-0.4
10.3,80,3.3,-0.6
10.3,80,2.7,-1
10.3,80,2,-1.5
10.3,80,1.2,-2.1
10.3,80,0.3,-2.7
10.3,80,-0.5,-3.3
10.3,80,-1.2,-3.8
10.4,80,-1.8,-4.2
10.4,80,-2.3,-4.4
10.4,80,-2.7,-4.5
10.4,80,-2.9,-4.5
10.4,81,-3,-4.3
10.4,81,-2.9,-4.2
10.4,81,-2.8,-3.9
10.4,81,-2.6,-3.7
10.4,81,-2.3,-3.5
10.4,81,-2,-3.3
10.4,81,-1.7,-3
10.4,81,-1.4,-2.7
10.4,81,-1.1,-2.4
10.4,81,-0.9,-2.1
10.4,81,-0.7,-1.7
10.4,81,-0.4,-1.3
10.4,81,-0.2,-1
10.4,81,0,-0.6
10.4,81,0.3,-0.2
10.4,81,0.6,0.3
10.4,81,0.9,0.9
10.4,81,1.2,1.4
10.4,81,1.5,1.9
10.4,81,1.6,2.4
10.4,81,1.7,2.6
10.5,81,1.7,2.6
10.5,81,1.4,2.4
10.5,81,0.8,1.8
10.5,81,0,0.7
10.5,81,-1.2,-0.8
10.5,81,-2.6,-3.1
10.5,81,-4.2,-6.2
10.5,81,-5.7,-10.3
10.5,81,-7.3,-15.4
10.5,81,-8.8,-21.6
10.5,81,-10.2,-29.2
10.5,82,-11.6,-38.1
10.5,82,-13,-48.3
10.5,82,-14.4,-59.7
10.5,82,-16,-72.1
10.5,82,-17.7,-85.4
10.5,82,-19.7,-99.3
10.5,82,-22.1,-113.7
10.5,82,-24.8,-128.1
10.5,82,-27.8,-142.4
10.5,82,-31.1,-156.3
10.5,82,-34.5,-169.3
10.5,82,-38.1,-181.3
10.5,82,-41.8,-192
10.5,82,-45.7,-201.1
10.6,82,-49.5,-208.5
10.6,82,-53.3,-214.2
10.6,82,-57,-217.8
10.6,82,-60.6,-219.5
10.6,82,-64,-219.1
10.6,82,-67.3,-216.5
10.6,82,-70.3,-212
10.6,82,-72.8,-205.6
10.6,82,-74.8,-197.2
10.6,82,-76.1,-187.2
10.6,82,-76.6,-175.5
10.6,82,-76.3,-162.3
10.6,82,-75.2,-147.9
10.6,82,-73.5,-132.4
10.6,82,-71.2,-116.2
10.6,82,-68.4,-99.4
10.6,82,-65.2,-82.3
10.6,82,-61.6,-65.1
10.6,83,-57.8,-48
10.6,83,-53.8,-31.3
10.6,83,-49.6,-15.1
10.6,83,-45.3,0.5
10.6,83,-41,15.6
10.6,83,-36.5,29.9
10.6,83,-32,43.7
10.7,83,-27.3,56.8
10.7,83,-22.5,69.5
10.7,83,-17.6,81.8
10.7,83,-12.6,93.6
10.7,83,-7.6,105
10.7,83,-2.5,116
10.7,83,2.5,126.6
10.7,83,7.5,136.7
10.7,83,12.5,146.4
10.7,83,17.4,155.8
10.7,83,22.4,164.7
10.7,83,27.2,173.2
10.7,83,32,181.2
10.7,83,36.7,188.8
10.7,83,41.3,195.9
10.7,83,45.8,202.5
10.7,83,50.1,208.5
10.7,83,54.2,213.9
10.7,83,58.2,218.5
10.7,83,62.1,222.5
10.7,83,65.7,226
10.7,83,69.3,228.8
10.7,83,72.6,231.2
10.7,83,75.7,233
10.7,83,78.6,234.3
10.8,84,81.3,235.1
10.8,84,83.7,235.5
10.8,84,86,235.4
10.8,84,88.2,235
10.8,84,90.2,234.1
10.8,84,92.2,232.9
10.8,84,94,231.2
10.8,84,95.7,229.1
10.8,84,97.2,226.5
10.8,84,98.3,223.6
10.8,84,99.1,220.1
10.8,84,99.5,216.3
10.8,84,99.5,212
10.8,84,99,207.3
10.8,84,98,202.2
10.8,84,96.6,196.7
10.8,84,94.8,191
10.8,84,92.7,185
10.8,84,90.3,178.9
10.8,84,87.9,172.6
10.8,84,85.4,166.3
10.8,84,83,159.9
10.8,84,80.8,153.7
10.8,84,78.7,147.5
10.8,84,76.7,141.5
10.9,84,74.9,135.7
10.9,84,73.3,130.1
10.9,84,71.7,124.8
10.9,84,70.1,119.6
10.9,84,68.5,114.5
10.9,84,66.8,109.5
10.9,84,65,104.4
10.9,85,63,99.3
10.9,85,60.9,93.9
10.9,85,58.7,88.3
10.9,85,56.4,82.4
10.9,85,54,76.4
10.9,85,51.5,70.3
10.9,85,48.9,64
10.9,85,46.2,57.7
10.9,85,43.4,51.5
10.9,85,40.6,45.4
10.9,85,37.8,39.4
10.9,85,35.1,33.5
10.9,85,32.4,27.7
10.9,85,30,22.2
10.9,85,27.7,16.9
10.9,85,25.6,11.9
10.9,85,23.6,7
10.9,85,21.8,2.2
11,85,20.1,-2.4
11,85,18.5,-7.1
11,85,16.9,-11.7
11,85,15.2,-16.3
11,85,13.5,-20.9
11,85,11.7,-25.6
11,85,9.9,-30.2
11,85,7.9,-34.7
11,85,6,-39.2
11,85,4.1,-43.5
11,85,2.2,-47.7
11,85,0.4,-51.6
11,85,-1.3,-55.3
11,85,-2.8,-58.7
11,86,-4.3,-61.9
11,86,-5.7,-65
11,86,-7,-67.9
11,86,-8.2,-70.7
11,86,-9.4,-73.4
11,86,-10.5,-76
11,86,-11.6,-78.5
11,86,-12.7,-80.9
11,86,-13.8,-83.3
11,86,-15,-85.7
11,86,-16.2,-88.1
11.1,86,-17.5,-90.7
11.1,86,-18.9,-93.3
11.1,86,-20.6,-95.9
11.1,86,-22.4,-98.6
11.1,86,-24.4,-101.1
11.1,86,-26.5,-103.7
11.1,86,-28.6,-106.1
11.1,86,-30.8,-108.4
11.1,86,-32.9,-110.8
11.1,86,-35,-113
11.1,86,-37,-115.1
11.1,86,-38.9,-117
11.1,86,-40.6,-118.6
11.1,86,-42.1,-120
11.1,86,-43.3,-121.2
11.1,86,-44.4,-122.1
11.1,86,-45.4,-122.9
11.1,86,-46.2,-123.5
11.1,86,-46.8,-123.9
11.1,86,-47.4,-124.1
11.1,86,-47.9,-124.2
11.1,87,-48.4,-124.1
11.1,87,-49,-123.9
11.1,87,-49.5,-123.6
11.1,87,-50.1,-123.1
11.2,87,-50.7,-122.5
11.2,87,-51.3,-121.6
11.2,87,-51.9,-120.7
11.2,87,-52.5,-119.6
11.2,87,-53,-118.4
11.2,87,-53.4,-117.2
11.2,87,-53.6,-116
11.2,87,-53.7,-114.8
11.2,87,-53.7,-113.7
11.2,87,-53.6,-112.5
11.2,87,-53.3,-111.2
11.2,87,-52.8,-109.9
11.2,87,-52.1,-108.4
11.2,87,-51.3,-106.8
11.2,87,-50.3,-105.2
11.2,87,-49.3,-103.7
11.2,87,-48.2,-102.2
11.2,87,-47.1,-100.9
11.2,87,-46,-99.6
11.2,87,-45.1,-98.3
11.2,87,-44.3,-97.1
11.2,87,-43.6,-95.9
11.2,87,-43,-94.6
11.2,87,-42.6,-93.3
11.2,87,-42.1,-91.9
11.3,87,-41.7,-90.5
11.3,87,-41.4,-89.1
11.3,87,-41,-87.5
11.3,88,-40.7,-85.9
11.3,88,-40.4,-84.2
11.3,88,-39.9,-82.5
11.3,88,-39.4,-80.7
11.3,88,-38.8,-78.8
11.3,88,-38,-76.9
11.3,88,-37.1,-74.9
11.3,88,-36.2,-72.8
11.3,88,-35.3,-70.8
11.3,88,-34.4,-68.8
11.3,88,-33.6,-66.9
11.3,88,-33.1,-65.2
11.3,88,-32.8,-63.6
11.3,88,-32.7,-62.1
11.3,88,-32.7,-60.7
11.3,88,-32.8,-59.3
11.3,88,-32.9,-57.9
11.3,88,-32.9,-56.4
11.3,88,-32.8,-54.7
11.3,88,-32.5,-52.7
11.3,88,-32.1,-50.5
11.3,88,-31.5,-48
11.4,88,-30.8,-45.4
11.4,88,-29.9,-42.5
11.4,88,-29,-39.7
11.4,88,-27.9,-36.8
11.4,88,-26.8,-34
11.4,88,-25.7,-31.3
11.4,88,-24.4,-28.6
11.4,88,-23.1,-26
11.4,88,-21.8,-23.5
11.4,88,-20.4,-21.2
11.4,89,-19.1,-19
11.4,89,-17.7,-17
11.4,89,-16.5,-15.1
11.4,89,-15.3,-13.6
11.4,89,-14.4,-12.2
11.4,89,-13.5,-11.1
11.4,89,-12.9,-10.1
11.4,89,-12.3,-9.2
11.4,89,-11.8,-8.4
11.4,89,-11.3,-7.6
11.4,89,-10.9,-6.8
11.4,89,-10.5,-5.9
11.4,89,-10.1,-4.9
11.4,89,-9.7,-3.8
11.4,89,-9.3,-2.6
11.5,89,-8.8,-1.3
11.5,89,-8.3,0.1
11.5,89,-7.7,1.8
11.5,89,-7.1,3.6
11.5,89,-6.3,5.6
11.5,89,-5.5,7.7
11.5,89,-4.6,9.8
11.5,89,-3.7,12
11.5,89,-2.8,14.1
11.5,89,-1.8,16.1
11.5,89,-0.9,18
11.5,89,0.1,19.8
11.5,89,1,21.6
11.5,89,1.9,23.2
11.5,89,2.9,24.8
11.5,89,3.7,26.2
11.5,89,4.6,27.5
11.5,90,5.4,28.6
11.5,90,6.2,29.5
11.5,90,6.8,30.4
11.5,90,7.4,31.1
11.5,90,7.9,31.9
11.5,90,8.3,32.7
11.5,90,8.6,33.5
11.5,90,8.7,34.3
11.6,90,8.8,35
11.6,90,8.8,35.6
11.6,90,8.8,36
11.6,90,8.7,36.1
11.6,90,8.5,36
11.6,90,8.3,35.7
11.6,90,8,35.3
11.6,90,7.7,34.9
11.6,90,7.4,34.5
11.6,90,7.1,34.2
11.6,90,6.9,33.9
11.6,90,6.7,33.7
11.6,90,6.5,33.5
11.6,90,6.3,33.3
11.6,90,6.2,33.1
11.6,90,6.1,32.9
11.6,90,6.1,32.8
11.6,90,6.1,32.8
11.6,90,6.3,32.9
11.6,90,6.5,33
11.6,90,6.9,33.2
11.6,90,7.3,33.4
11.6,90,7.8,33.7
11.6,90,8.4,34
11.6,91,9.1,34.2
11.7,91,9.9,34.4
11.7,91,10.8,34.5
11.7,91,11.7,34.6
11.7,91,12.6,34.7
11.7,91,13.6,34.7
11.7,91,14.5,34.8
11.7,91,15.4,34.8
11.7,91,16.2,34.7
11.7,91,17,34.5
11.7,91,17.8,34.3
11.7,91,18.4,34.1
11.7,91,19,33.8
11.7,91,19.4,33.6
11.7,91,19.8,33.4
11.7,91,20,33.3
11.7,91,20.2,33.2
11.7,91,20.3,33.2
11.7,91,20.3,33.1
11.7,91,20.2,33
11.7,91,20.1,32.9
11.7,91,19.9,32.8
11.7,91,19.7,32.6
11.7,91,19.4,32.4
11.7,91,19.2,32.1
11.7,91,19,31.8
11.8,91,18.8,31.5
11.8,91,18.6,31.2
11.8,91,18.4,30.8
11.8,91,18.2,30.4
11.8,91,18,30
11.8,91,17.8,29.6
11.8,92,17.6,29.1
11.8,92,17.4,28.7
11.8,92,17,28.2
11.8,92,16.5,27.6
11.8,92,15.9,27
11.8,92,15.2,26.4
11.8,92,14.4,25.7
11.8,92,13.6,25
11.8,92,12.7,24.4
11.8,92,11.7,23.7
11.8,92,10.8,23
11.8,92,9.8,22.5
11.8,92,8.9,22.1
11.8,92,8.1,21.8
11.8,92,7.3,21.8
11.8,92,6.7,21.8
11.8,92,6.3,22
11.8,92,6.1,22.1
11.8,92,6.2,22.2
11.9,92,6.4,22.2
11.9,92,6.9,22
11.9,92,7.6,21.7
11.9,92,8.4,21.3
11.9,92,9.3,20.9
11.9,92,10.2,20.5
11.9,92,11.1,20.1
11.9,92,11.9,19.7
11.9,92,12.5,19.1
11.9,92,12.9,18.4
11.9,92,13.2,17.6
11.9,92,13.2,16.7
11.9,92,13,15.7
11.9,93,12.6,14.7
11.9,93,12.1,13.7
11.9,93,11.4,12.9
11.9,93,10.7,12.1
11.9,93,9.9,11.4
11.9,93,9.1,10.8
11.9,93,8.4,10.3
11.9,93,7.7,9.9
11.9,93,7.1,9.5
11.9,93,6.6,9.2
11.9,93,6.1,8.8
11.9,93,5.8,8.5
12,93,5.5,8.1
12,93,5.3,7.6
12,93,5,7
12,93,4.7,6.4
12,93,4.4,5.6
12,93,4,4.9
12,93,3.7,4.1
12,93,3.3,3.3
12,93,3.1,2.6
12,93,3,2
12,93,3,1.5
12,93,3.2,1.2
12,93,3.4,0.9
12,93,3.7,0.7
12,93,4,0.7
12,93,4.3,0.6
12,93,4.6,0.6
12,93,4.8,0.6
12,93,4.9,0.6
12,93,5.1,0.6
12,94,5.2,0.6
12,94,5.3,0.6
12,94,5.4,0.5
12,94,5.3,0.5
12,94,5.2,0.4
12.1,94,5,0.3
12.1,94,4.6,0.1
12.1,94,4,-0.2
12.1,94,3.3,-0.5
12.1,94,2.5,-0.9
12.1,94,1.7,-1.3
12.1,94,1,-1.6
12.1,94,0.4,-1.8
12.1,94,0,-1.8
12.1,94,-0.3,-1.7
12.1,94,-0.4,-1.5
12.1,94,-0.4,-1.1
12.1,94,-0.3,-0.7
12.1,94,-0.2,-0.4
12.1,94,0,-0.2
12.1,94,0.1,-0.1
12.1,94,0.3,-0.1
12.1,94,0.5,-0.2
12.1,94,0.6,-0.3
12.1,94,0.8,-0.4
12.1,94,1,-0.5
12.1,94,1.2,-0.5
12.1,94,1.3,-0.6
12.1,94,1.4,-0.6
12.1,94,1.5,-0.7
12.2,94,1.5,-0.8
12.2,94,1.4,-0.9
12.2,95,1.2,-0.9
12.2,95,0.8,-1
12.2,95,0.3,-1
12.2,95,-0.4,-0.9
12.2,95,-1.1,-0.9
12.2,95,-1.9,-0.9
12.2,95,-2.6,-1
12.2,95,-3.3,-1.3
12.2,95,-3.9,-1.5
12.2,95,-4.3,-1.8
12.2,95,-4.6,-2.1
12.2,95,-4.8,-2.4
12.2,95,-4.8,-2.7
12.2,95,-4.8,-2.9
12.2,95,-4.7,-3.1
12.2,95,-4.7,-3.2
12.2,95,-4.8,-3.4
12.2,95,-4.8,-3.4
12.2,95,-4.9,-3.4
12.2,95,-5,-3.3
12.2,95,-4.9,-3
12.2,95,-4.8,-2.7
12.2,95,-4.6,-2.3
12.3,95,-4.4,-1.9
12.3,95,-4.1,-1.6
12.3,95,-3.9,-1.3
12.3,95,-3.7,-1.3
12.3,95,-3.6,-1.4
12.3,95,-3.5,-1.7
12.3,95,-3.5,-2.1
12.3,95,-3.6,-2.7
12.3,95,-3.8,-3.4
12.3,96,-4,-4
12.3,96,-4.4,-4.6
12.3,96,-4.8,-5.1
12.3,96,-5.3,-5.6
12.3,96,-5.7,-5.9
12.3,96,-6.2,-6.2
12.3,96,-6.6,-6.4
12.3,96,-6.9,-6.4
12.3,96,-7,-6.4
12.3,96,-7.1,-6.3
12.3,96,-6.9,-6.2
12.3,96,-6.7,-6
12.3,96,-6.3,-5.6
12.3,96,-5.6,-5.2
12.3,96,-4.8,-4.6
12.3,96,-3.8,-4.1
12.4,96,-2.6,-3.4
12.4,96,-1.3,-2.8
12.4,96,0.1,-2.1
12.4,96,1.5,-1.5
12.4,96,2.7,-0.9
12.4,96,3.9,-0.4
12.4,96,4.9,0.1
12.4,96,5.7,0.6
12.4,96,6.1,0.9
12.4,96,6.3,1.1
12.4,96,6.2,1.3
12.4,96,5.8,1.4
12.4,96,5.2,1.4
12.4,96,4.5,1.3
12.4,96,3.7,1.2
12.4,96,3,1.1
12.4,97,2.2,1.1
12.4,97,1.6,1.1
12.4,97,1,1.1
12.4,97,0.6,1.2
12.4,97,0.1,1.3
12.4,97,-0.2,1.4
12.4,97,-0.5,1.4
12.4,97,-0.7,1.4
12.4,97,-1,1.4
12.5,97,-1.3,1.4
12.5,97,-1.5,1.4
12.5,97,-1.7,1.3
12.5,97,-2,1.2
12.5,97,-2.1,1.1
12.5,97,-2.2,0.8
12.5,97,-2.3,0.6
12.5,97,-2.2,0.3
12.5,97,-2,0.1
12.5,97,-1.7,-0.1
12.5,97,-1.4,-0.1
12.5,97,-1.1,-0.1
12.5,97,-0.7,-0.1
12.5,97,-0.3,-0.1
12.5,97,0.1,-0.2
12.5,97,0.5,-0.3
12.5,97,0.8,-0.5
12.5,97,1.2,-0.6
12.5,97,1.5,-0.8
12.5,97,1.8,-1
12.5,97,2,-1.2
12.5,97,2.2,-1.5
12.5,97,2.3,-1.7
12.5,98,2.4,-2
12.5,98,2.6,-2.2
12.6,98,2.7,-2.3
12.6,98,2.7,-2.4
12.6,98,2.7,-2.4
12.6,98,2.5,-2.4
12.6,98,2.3,-2.3
12.6,98,1.8,-2.3
12.6,98,1.3,-2.3
12.6,98,0.7,-2.2
12.6,98,0.1,-2
12.6,98,-0.3,-1.6
12.6,98,-0.7,-1
12.6,98,-0.9,-0.4
12.6,98,-0.9,0.4
12.6,98,-0.7,1.2
12.6,98,-0.5,2.1
12.6,98,-0.1,2.9
12.6,98,0.3,3.5
12.6,98,0.7,4
12.6,98,1.2,4.4
12.6,98,1.7,4.6
12.6,98,2.2,4.7
12.6,98,2.6,4.7
12.6,98,2.9,4.6
12.6,98,3.2,4.5
12.6,98,3.3,4.3
12.7,98,3.3,4
12.7,98,3.2,3.8
12.7,98,3,3.5
12.7,98,2.7,3.3
12.7,98,2.3,3.2
12.7,99,1.8,3.1
12.7,99,1.3,3.2
12.7,99,0.8,3.4
12.7,99,0.3,3.7
12.7,99,-0.1,4
12.7,99,-0.3,4.4
12.7,99,-0.4,4.8
12.7,99,-0.4,5.1
12.7,99,-0.2,5.5
12.7,99,0,5.8
12.7,99,0.2,6
12.7,99,0.6,6.1
12.7,99,0.9,6.1
12.7,99,1.3,6.1
12.7,99,1.6,5.9
12.7,99,1.9,5.5
12.7,99,2.1,5.1
12.7,99,2.3,4.6
12.7,99,2.4,4
12.7,99,2.4,3.4
12.8,99,2.3,2.8
12.8,99,2.1,2.2
12.8,99,1.8,1.8
12.8,99,1.6,1.4
12.8,99,1.3,1
12.8,99,1.1,0.7
12.8,99,0.9,0.4
12.8,99,0.8,0.2
12.8,99,0.7,-0.1
12.8,99,0.7,-0.3
12.8,99,0.7,-0.4
12.8,99,0.7,-0.6
12.8,100,0.7,-0.7
12.8,100,0.6,-0.9
12.8,100,0.6,-1
12.8,100,0.7,-1.1
12.8,100,0.8,-1.2
12.8,100,0.9,-1.2
12.8,100,1,-1.2
12.8,100,1.2,-1.3
12.8,100,1.2,-1.4
12.8,100,1.2,-1.6
12.8,100,1,-1.8
12.8,100,0.7,-2
12.8,100,0.3,-2.2
12.9,100,-0.1,-2.3
12.9,100,-0.4,-2.3
12.9,100,-0.5,-2.2
12.9,100,-0.5,-2
12.9,100,-0.2,-1.9
12.9,100,0.1,-1.8
12.9,100,0.6,-1.8
12.9,100,1.1,-1.9
12.9,100,1.6,-2
12.9,100,2.1,-2.2
12.9,100,2.6,-2.4
12.9,100,2.9,-2.7
12.9,100,3.2,-2.9
12.9,100,3.4,-3.1
12.9,100,3.4,-3.2
12.9,100,3.2,-3.3
12.9,100,2.9,-3.4
12.9,100,2.4,-3.4
12.9,100,1.7,-3.4
12.9,101,1,-3.2
12.9,101,0.2,-3
12.9,101,-0.5,-2.7
12.9,101,-1.2,-2.4
12.9,101,-1.8,-2.1
12.9,101,-2.3,-1.7
13,101,-2.8,-1.4
13,101,-3.1,-1.2
13,101,-3.4,-1.1
13,101,-3.7,-1.2
13,101,-3.9,-1.3
13,101,-4,-1.4
13,101,-4.1,-1.5
13,101,-4.2,-1.5
13,101,-4.2,-1.5
13,101,-4.1,-1.3
13,101,-3.9,-1.1
13,101,-3.4,-0.9
13,101,-2.9,-0.7
13,101,-2.3,-0.6
13,101,-1.6,-0.3
13,101,-0.8,-0.1
13,101,0,0.3
13,101,1,0.7
13,101,1.9,1.2
13,101,2.9,1.9
13,101,3.8,2.5
13,101,4.5,3
13,101,5.1,3.5
13,101,5.4,3.8
13,101,5.4,4
13.1,101,5.2,4.1
13.1,102,4.7,4.1
13.1,102,4,4
13.1,102,3.2,3.9
13.1,102,2.3,3.8
13.1,102,1.3,3.7
13.1,102,0.4,3.6
13.1,102,-0.4,3.4
13.1,102,-1.1,3.2
13.1,102,-1.6,2.9
13.1,102,-1.9,2.5
13.1,102,-2,2.2
13.1,102,-1.9,1.8
13.1,102,-1.5,1.5
13.1,102,-1.1,1.3
13.1,102,-0.6,1.2
13.1,102,0,1.2
13.1,102,0.5,1.2
13.1,102,1,1.2
13.1,102,1.3,1.2
13.1,102,1.5,1.2
13.1,102,1.5,1.2
13.1,102,1.4,1.2
13.1,102,1.1,1.2
13.1,102,0.6,1.1
13.2,102,0,1
13.2,102,-0.7,0.8
13.2,102,-1.5,0.5
13.2,102,-2.3,0.1
13.2,102,-3,-0.3
13.2,102,-3.7,-0.8
13.2,102,-4.1,-1.2
13.2,102,-4.4,-1.5
13.2,103,-4.5,-1.8
13.2,103,-4.5,-1.9
13.2,103,-4.5,-2
13.2,103,-4.3,-2
13.2,103,-4.2,-2
13.2,103,-4,-1.9
13.2,103,-3.8,-1.7
13.2,103,-3.6,-1.5
13.2,103,-3.4,-1.2
13.2,103,-3.3,-0.9
13.2,103,-3.2,-0.5
13.2,103,-3.1,-0.1
13.2,103,-3,0.2
13.2,103,-3,0.6
13.2,103,-2.9,0.9
13.2,103,-2.9,1.1
13.2,103,-2.8,1.2
13.3,103,-2.6,1.1
13.3,103,-2.3,0.9
13.3,103,-2,0.5
13.3,103,-1.5,-0.1
13.3,103,-0.9,-0.8
13.3,103,-0.3,-1.5
13.3,103,0.3,-2.1
13.3,103,1,-2.6
13.3,103,1.6,-3
13.3,103,2.3,-3.3
13.3,103,2.9,-3.5
13.3,103,3.5,-3.7
13.3,103,4,-3.9
13.3,103,4.4,-4
13.3,103,4.6,-4.1
13.3,104,4.5,-4.2
13.3,104,4.2,-4.3
13.3,104,3.6,-4.4
13.3,104,2.8,-4.3
13.3,104,1.9,-4.2
13.3,104,0.9,-4.1
13.3,104,0,-3.9
13.3,104,-0.9,-3.7
13.3,104,-1.5,-3.4
13.3,104,-2,-3.2
13.4,104,-2.3,-3.1
13.4,104,-2.4,-3
13.4,104,-2.4,-2.9
13.4,104,-2.4,-2.9
13.4,104,-2.3,-3
13.4,104,-2.2,-3
13.4,104,-2.2,-3.2
13.4,104,-2.1,-3.4
13.4,104,-2,-3.6
13.4,104,-1.8,-3.8
13.4,104,-1.3,-3.8
13.4,104,-0.5,-3.7
13.4,104,0.7,-3.2
13.4,104,2.2,-2.4
13.4,104,4,-1.1
13.4,104,6.2,0.7
13.4,104,8.6,2.9
13.4,104,11.3,5.5
13.4,104,14.3,8.4
13.4,104,17.5,11.7
13.4,104,20.8,15.1
13.4,104,24.4,18.6
13.4,105,28.1,22.1
13.4,105,31.9,25.6
13.4,105,35.7,29.1
13.5,105,39.3,32.4
13.5,105,42.7,35.5
13.5,105,45.7,38.6
13.5,105,48.4,41.5
13.5,105,50.8,44.5
13.5,105,52.9,47.5
13.5,105,54.8,50.5
13.5,105,56.4,53.7
13.5,105,57.7,56.9
13.5,105,58.9,60.1
13.5,105,59.8,63.2
13.5,105,60.5,66.1
13.5,105,60.9,68.8
13.5,105,61,71
13.5,105,60.6,72.8
13.5,105,60,74.1
13.5,105,59,74.9
13.5,105,57.7,75.2
13.5,105,56.2,75
13.5,105,54.6,74.4
13.5,105,52.9,73.3
13.5,105,51,72
13.5,105,49.1,70.3
13.5,105,47,68.4
13.5,105,44.7,66.3
13.6,105,42.4,64.1
13.6,105,39.9,61.8
13.6,105,37.3,59.5
13.6,105,34.4,56.9
13.6,106,31.4,54.3
13.6,106,28.1,51.4
13.6,106,24.6,48.3
13.6,106,20.8,45
13.6,106,16.8,41.3
13.6,106,12.4,37.2
13.6,106,7.5,32.8
13.6,106,2.1,28
13.6,106,-3.7,22.7
13.6,106,-9.8,16.9
13.6,106,-16.1,10.7
13.6,106,-22.5,3.9
13.6,106,-28.9,-3.5
13.6,106,-35.2,-11.4
13.6,106,-41.5,-19.9
13.6,106,-47.9,-29.1
13.6,106,-54.2,-38.8
13.6,106,-60.5,-49.1
13.6,106,-66.8,-59.9
13.6,106,-73.1,-71.1
13.6,106,-79.4,-82.7
13.7,106,-85.9,-94.6
13.7,106,-92.5,-106.6
13.7,106,-99.3,-118.5
13.7,106,-106.3,-130.1
13.7,106,-113.3,-141.4
13.7,106,-120.5,-152.2
13.7,106,-127.6,-162.3
13.7,106,-134.6,-171.8
13.7,106,-141.3,-180.5
13.7,106,-147.7,-188.2
13.7,106,-153.5,-194.9
13.7,107,-158.8,-200.6
13.7,107,-163.4,-205.1
13.7,107,-167.2,-208.4
13.7,107,-170.2,-210.5
13.7,107,-172.4,-211.4
13.7,107,-173.6,-211.1
13.7,107,-173.9,-209.6
13.7,107,-173.2,-206.9
13.7,107,-171.4,-203
13.7,107,-168.5,-197.9
13.7,107,-164.4,-191.4
13.7,107,-159.1,-183.7
13.7,107,-152.5,-174.8
13.7,107,-144.8,-164.7
13.8,107,-136.2,-153.7
13.8,107,-126.8,-141.8
13.8,107,-116.9,-129.4
13.8,107,-106.6,-116.7
13.8,107,-96.1,-103.9
13.8,107,-85.7,-91.2
13.8,107,-75.4,-79
13.8,107,-65.4,-67.3
13.8,107,-55.9,-56.4
13.8,107,-46.8,-46.3
13.8,107,-38.2,-37.2
13.8,107,-30.2,-28.9
13.8,107,-22.7,-21.5
13.8,107,-15.8,-14.8
13.8,107,-9.3,-8.8
13.8,107,-3.3,-3.5
13.8,107,2.3,1.3
13.8,107,7.4,5.7
13.8,108,12.3,9.8
13.8,108,16.7,13.6
13.8,108,20.9,17.2
13.8,108,24.8,20.6
13.8,108,28.4,23.9
13.8,108,31.7,26.9
13.8,108,34.8,29.8
13.9,108,37.5,32.5
13.9,108,40.1,35
13.9,108,42.5,37.4
13.9,108,44.6,39.5
13.9,108,46.7,41.5
13.9,108,48.6,43.4
13.9,108,50.6,45.3
13.9,108,52.6,47.2
13.9,108,54.9,49.1
13.9,108,57.5,51.2
13.9,108,60.3,53.3
13.9,108,63.4,55.6
13.9,108,66.7,58.1
13.9,108,70.1,60.7
13.9,108,73.6,63.3
13.9,108,77.1,66
13.9,108,80.4,68.6
13.9,108,83.4,71.1
13.9,108,86,73.4
13.9,108,88.1,75.4
13.9,108,89.8,77.1
13.9,108,90.9,78.5
13.9,108,91.5,79.3
13.9,108,91.5,79.7
13.9,108,91,79.7
14,109,90.1,79.2
14,109,88.7,78.4
14,109,86.9,77.3
14,109,84.9,76
14,109,82.8,74.6
14,109,80.6,73.1
14,109,78.3,71.5
14,109,76.2,69.9
14,109,74.3,68.2
14,109,72.5,66.6
14,109,70.8,64.8
14,109,69.3,63
14,109,67.8,61.1
14,109,66.4,59.1
14,109,64.9,57
14,109,63.4,54.7
14,109,61.7,52.3
14,109,59.9,49.7
14,109,58,47.1
14,109,56.2,44.4
14,109,54.7,41.9
14,109,53.7,39.6
14,109,53.2,37.6
14,109,53.4,36.1
14,109,54.2,35.2
14.1,109,55.9,35
14.1,109,58.3,35.6
14.1,109,61.5,37
14.1,109,65.3,39.2
14.1,109,69.7,42.4
14.1,109,74.5,46.3
14.1,109,79.4,50.8
14.1,110,84.4,56
14.1,110,89.2,61.6
14.1,110,93.8,67.4
14.1,110,98,73.4
14.1,110,101.8,79.4
14.1,110,105,85.2
14.1,110,107.6,90.8
14.1,110,109.4,96
14.1,110,110.4,100.8
14.1,110,110.5,105.1
14.1,110,109.8,108.9
14.1,110,108,112.1
14.1,110,105.5,114.9
14.1,110,102.1,117.1
14.1,110,98.2,118.9
14.1,110,93.8,120.3
14.1,110,88.9,121.1
14.1,110,83.8,121.5
14.2,110,78.4,121.3
14.2,110,73.1,120.6
14.2,110,67.7,119.3
14.2,110,62.3,117.4
14.2,110,56.8,115
14.2,110,51.3,112.1
14.2,110,45.6,108.8
14.2,110,39.9,105.1
14.2,110,34.1,101
14.2,110,28.3,96.8
14.2,110,22.5,92.3
14.2,110,16.9,87.8
14.2,110,11.4,83.1
14.2,110,6.2,78.4
14.2,111,1,73.6
14.2,111,-4,68.8
14.2,111,-9,63.9
14.2,111,-13.8,58.8
14.2,111,-18.5,53.6
14.2,111,-23.1,48.3
14.2,111,-27.6,42.8
14.2,111,-32.2,37
14.2,111,-36.5,31
14.2,111,-40.7,24.8
14.2,111,-44.7,18.3
14.3,111,-48.5,11.7
14.3,111,-52,4.9
14.3,111,-55.3,-2
14.3,111,-58.3,-8.9
14.3,111,-61.1,-15.8
14.3,111,-63.7,-22.6
14.3,111,-66.1,-29.2
14.3,111,-68.4,-35.6
14.3,111,-70.4,-41.8
14.3,111,-72.1,-47.6
14.3,111,-73.6,-53.2
14.3,111,-75,-58.4
14.3,111,-76.3,-63.5
14.3,111,-77.6,-68.3
14.3,111,-78.9,-72.8
14.3,111,-80.2,-77.2
14.3,111,-81.6,-81.2
14.3,111,-82.9,-85.1
14.3,111,-84.3,-88.7
14.3,111,-85.5,-92.2
14.3,111,-86.7,-95.4
14.3,112,-87.9,-98.4
14.3,112,-88.8,-101.2
14.3,112,-89.7,-103.7
14.3,112,-90.3,-106
14.4,112,-90.7,-108.1
14.4,112,-91,-110
14.4,112,-91,-111.5
14.4,112,-90.9,-112.9
14.4,112,-90.6,-114
14.4,112,-90.2,-114.8
14.4,112,-89.6,-115.3
14.4,112,-88.7,-115.6
14.4,112,-87.7,-115.7
14.4,112,-86.5,-115.7
14.4,112,-85.1,-115.4
14.4,112,-83.5,-115
14.4,112,-81.9,-114.5
14.4,112,-80,-113.9
14.4,112,-78.1,-113.2
14.4,112,-76.2,-112.5
14.4,112,-74.2,-111.7
14.4,112,-72.3,-110.8
14.4,112,-70.4,-109.7
14.4,112,-68.5,-108.6
14.4,112,-66.7,-107.3
14.4,112,-65,-105.8
14.4,112,-63.3,-104.3
14.4,112,-61.6,-102.6
14.4,112,-60,-100.8
14.5,112,-58.3,-98.9
14.5,112,-56.7,-96.9
14.5,112,-55,-94.7
14.5,113,-53.1,-92.4
14.5,113,-51.2,-89.8
14.5,113,-49.1,-87.2
14.5,113,-46.9,-84.4
14.5,113,-44.7,-81.6
14.5,113,-42.5,-78.8
14.5,113,-40.2,-75.9
14.5,113,-38,-73.1
14.5,113,-35.7,-70.2
14.5,113,-33.5,-67.4
14.5,113,-31.3,-64.6
14.5,113,-29,-61.8
14.5,113,-26.9,-59.1
14.5,113,-24.9,-56.6
14.5,113,-22.9,-54.1
14.5,113,-21.1,-51.6
14.5,113,-19.4,-49.2
14.5,113,-17.7,-46.8
14.5,113,-16.1,-44.3
14.5,113,-14.7,-41.9
14.5,113,-13.3,-39.5
14.5,113,-12.1,-37.2
14.6,113,-11.1,-35
14.6,113,-10.2,-33
14.6,113,-9.5,-30.9
14.6,113,-8.8,-28.9
14.6,113,-8.2,-26.9
14.6,113,-7.4,-24.9
14.6,113,-6.3,-22.8
14.6,113,-5,-20.7
14.6,113,-3.4,-18.5
14.6,113,-1.6,-16.3
14.6,114,0.4,-14
14.6,114,2.5,-11.8
14.6,114,4.7,-9.5
14.6,114,6.9,-7.1
14.6,114,9.1,-4.7
14.6,114,11.3,-2.4
14.6,114,13.3,0
14.6,114,15.2,2.2
14.6,114,16.9,4.4
14.6,114,18.4,6.6
14.6,114,19.8,8.6
14.6,114,21.1,10.7
14.6,114,22.3,12.8
14.6,114,23.4,14.9
14.6,114,24.6,17
14.7,114,25.7,19
14.7,114,26.8,21
14.7,114,27.9,22.9
14.7,114,28.9,24.6
14.7,114,29.8,26.4
14.7,114,30.5,28
14.7,114,31.1,29.5
14.7,114,31.5,31
14.7,114,31.8,32.4
14.7,114,31.9,33.6
14.7,114,31.8,34.7
14.7,114,31.7,35.6
14.7,114,31.5,36.3
14.7,114,31.2,37
14.7,114,30.8,37.5
14.7,114,30.4,38
14.7,114,30.1,38.6
14.7,115,29.9,39.2
14.7,115,29.9,40
14.7,115,30.1,41.1
14.7,115,30.6,42.3
14.7,115,31.3,43.7
14.7,115,32.3,45.2
14.7,115,33.6,46.9
14.7,115,35,48.6
14.8,115,36.4,50.2
14.8,115,37.8,51.7
14.8,115,39.1,53.1
14.8,115,40.2,54.3
14.8,115,41.1,55.2
14.8,115,41.8,55.8
14.8,115,42.1,56.2
14.8,115,42.1,56.2
14.8,115,41.8,55.9
14.8,115,41.1,55.3
14.8,115,40,54.4
14.8,115,38.7,53.3
14.8,115,37.1,52
14.8,115,35.5,50.6
14.8,115,33.8,49.2
14.8,115,32.3,47.9
14.8,115,31,46.8
14.8,115,29.9,46
14.8,115,29.2,45.5
14.8,115,28.9,45.2
14.8,115,28.9,45.1
14.8,115,29.2,45.2
14.8,115,29.8,45.4
14.8,115,30.4,45.7
14.8,116,31.1,45.9
14.9,116,31.8,46.2
14.9,116,32.3,46.3
14.9,116,32.7,46.3
14.9,116,32.8,46.2
14.9,116,32.7,45.9
14.9,116,32.5,45.5
14.9,116,32,44.8
14.9,116,31.3,44
14.9,116,30.5,43
14.9,116,29.6,41.9
14.9,116,28.6,40.7
14.9,116,27.5,39.6
14.9,116,26.4,38.4
14.9,116,25.3,37.4
14.9,116,24.1,36.4
14.9,116,22.9,35.5
14.9,116,21.7,34.8
14.9,116,20.5,34.2
14.9,116,19.4,33.7
14.9,116,18.2,33.3
14.9,116,17.1,33
14.9,116,16,32.7
14.9,116,15,32.5
14.9,116,14,32.3
14.9,116,13.1,32
15,116,12.3,31.5
15,116,11.5,31
15,116,10.7,30.4
15,116,9.9,29.6
15,116,9,28.8
15,116,8.2,28
15,117,7.3,27.2
15,117,6.6,26.4
15,117,5.9,25.6
15,117,5.4,24.9
15,117,4.9,24.1
15,117,4.5,23.4
15,117,4.3,22.8
15,117,4.2,22.3
15,117,4.3,21.8
15,117,4.5,21.5
15,117,4.9,21.4
15,117,5.4,21.3
15,117,5.9,21.3
15,117,6.4,21.2
15,117,6.8,21.2
15,117,7,21
15,117,7.1,20.6
15,117,6.9,20.1
15,117,6.5,19.5
15.1,117,5.9,18.7
15.1,117,5.2,17.8
15.1,117,4.3,16.8
15.1,117,3.4,15.7
15.1,117,2.4,14.5
15.1,117,1.4,13.1
15.1,117,0.4,11.7
15.1,117,-0.5,10.3
15.1,117,-1.4,8.8
15.1,117,-2.2,7.3
15.1,117,-2.8,5.9
15.1,117,-3.4,4.6
15.1,117,-3.8,3.4
15.1,118,-4,2.4
15.1,118,-4.1,1.6
15.1,118,-4.2,1
15.1,118,-4.3,0.6
15.1,118,-4.5,0.3
15.1,118,-4.6,0
15.1,118,-4.9,-0.3
15.1,118,-5.3,-0.7
15.1,118,-5.7,-1.2
15.1,118,-6.2,-1.8
15.1,118,-6.6,-2.5
15.1,118,-6.9,-3.2
15.2,118,-7,-3.8
15.2,118,-7.1,-4.5
15.2,118,-6.9,-5.1
15.2,118,-6.7,-5.8
15.2,118,-6.3,-6.5
15.2,118,-6,-7.4
15.2,118,-5.5,-8.3
15.2,118,-5.1,-9.3
15.2,118,-4.7,-10.3
15.2,118,-4.2,-11.4
15.2,118,-3.9,-12.4
15.2,118,-3.6,-13.3
15.2,118,-3.4,-14.1
15.2,118,-3.4,-14.8
15.2,118,-3.6,-15.4
15.2,118,-3.9,-15.9
15.2,118,-4.4,-16.2
15.2,118,-5,-16.4
15.2,118,-5.6,-16.5
15.2,118,-6.3,-16.4
15.2,119,-6.9,-16.2
15.2,119,-7.6,-15.8
15.2,119,-8.2,-15.5
15.2,119,-8.9,-15.1
15.2,119,-9.5,-14.7
15.3,119,-10.1,-14.5
15.3,119,-10.7,-14.3
15.3,119,-11.3,-14.2
15.3,119,-11.8,-14.2
15.3,119,-12.2,-14.2
15.3,119,-12.5,-14.4
15.3,119,-12.6,-14.6
15.3,119,-12.6,-14.8
15.3,119,-12.6,-15.1
15.3,119,-12.4,-15.4
15.3,119,-12.3,-15.8
15.3,119,-12.1,-16.1
15.3,119,-12,-16.3
15.3,119,-11.8,-16.6
15.3,119,-11.7,-16.8
15.3,119,-11.5,-16.9
15.3,119,-11.3,-17
15.3,119,-11.1,-17.1
15.3,119,-10.8,-17.1
15.3,119,-10.6,-17.2
15.3,119,-10.4,-17.3
15.3,119,-10.2,-17.4
15.3,119,-10,-17.6
15.3,119,-9.7,-17.8
15.3,119,-9.5,-17.9
15.4,119,-9.2,-18.1
15.4,119,-9,-18.2
15.4,120,-8.7,-18.5
15.4,120,-8.5,-18.7
15.4,120,-8.3,-18.9
15.4,120,-8.1,-19
15.4,120,-7.8,-19
15.4,120,-7.6,-18.9
15.4,120,-7.3,-18.7
15.4,120,-7.1,-18.4
15.4,120,-6.8,-18
15.4,120,-6.5,-17.5
15.4,120,-6.1,-17
15.4,120,-5.8,-16.4
15.4,120,-5.5,-15.8
15.4,120,-5.2,-15.2
15.4,120,-5.1,-14.8
15.4,120,-5.3,-14.5
15.4,120,-5.6,-14.4
15.4,120,-6,-14.4
15.4,120,-6.5,-14.5
15.4,120,-6.9,-14.6
15.4,120,-7.2,-14.7
15.4,120,-7.3,-14.8
15.4,120,-7.3,-14.7
15.5,120,-7.2,-14.6
15.5,120,-7,-14.4
15.5,120,-6.8,-14.2
15.5,120,-6.6,-13.9
15.5,120,-6.5,-13.6
15.5,120,-6.5,-13.2
15.5,120,-6.6,-12.8
15.5,120,-6.7,-12.4
15.5,120,-6.9,-12
15.5,121,-7,-11.5
15.5,121,-7.2,-11.1
15.5,121,-7.3,-10.7
15.5,121,-7.3,-10.2
15.5,121,-7.3,-9.8
15.5,121,-7.2,-9.4
15.5,121,-7.1,-8.9
15.5,121,-6.9,-8.5
15.5,121,-6.5,-8
15.5,121,-6.2,-7.6
15.5,121,-5.7,-7.2
15.5,121,-5.2,-6.8
15.5,121,-4.6,-6.5
15.5,121,-4,-6.2
15.5,121,-3.4,-6
15.5,121,-2.8,-5.7
15.6,121,-2.3,-5.4
15.6,121,-1.9,-5.1
15.6,121,-1.6,-4.8
15.6,121,-1.5,-4.5
15.6,121,-1.4,-4.1
15.6,121,-1.4,-3.7
15.6,121,-1.5,-3.3
15.6,121,-1.6,-2.9
15.6,121,-1.8,-2.6
15.6,121,-1.9,-2.2
15.6,121,-2.1,-1.9
15.6,121,-2.2,-1.6
15.6,121,-2.2,-1.3
15.6,121,-2.2,-1.1
15.6,121,-2.1,-0.9
15.6,121,-1.9,-0.8
15.6,122,-1.7,-0.8
15.6,122,-1.4,-0.9
15.6,122,-1.1,-1.1
15.6,122,-0.8,-1.4
15.6,122,-0.7,-1.8
15.6,122,-0.7,-2.2
15.6,122,-0.8,-2.7
15.6,122,-1,-3.3
15.6,122,-1.4,-3.9
15.7,122,-1.9,-4.5
15.7,122,-2.5,-5.2
15.7,122,-3.1,-5.9
15.7,122,-3.7,-6.6
15.7,122,-4.3,-7.2
15.7,122,-4.8,-7.6
15.7,122,-5.1,-7.9
15.7,122,-5.3,-8
15.7,122,-5.3,-8
15.7,122,-5.2,-7.8
15.7,122,-4.9,-7.4
15.7,122,-4.6,-7
15.7,122,-4.1,-6.3
15.7,122,-3.7,-5.6
15.7,122,-3.2,-4.8
15.7,122,-2.7,-3.8
15.7,122,-2.3,-2.9
15.7,122,-2,-1.9
15.7,122,-1.8,-1
15.7,122,-1.7,-0.2
15.7,122,-1.8,0.4
15.7,122,-1.9,0.9
15.7,122,-2,1.1
15.7,123,-2.2,1.1
15.7,123,-2.4,0.9
15.8,123,-2.5,0.5
15.8,123,-2.5,0
15.8,123,-2.4,-0.7
15.8,123,-2.2,-1.4
15.8,123,-1.8,-2.1
15.8,123,-1.4,-2.8
15.8,123,-0.9,-3.4
15.8,123,-0.3,-4
15.8,123,0.2,-4.5
15.8,123,0.7,-4.9
15.8,123,1.1,-5.2
15.8,123,1.4,-5.5
15.8,123,1.6,-5.7
15.8,123,1.7,-5.8
15.8,123,1.6,-5.9
15.8,123,1.4,-5.8
15.8,123,1.2,-5.6
15.8,123,0.8,-5.2
15.8,123,0.4,-4.8
15.8,123,0,-4.4
15.8,123,-0.5,-3.8
15.8,123,-0.9,-3.3
15.8,123,-1.4,-2.6
15.8,123,-1.8,-2
15.8,123,-2.1,-1.3
15.9,123,-2.4,-0.6
15.9,123,-2.6,0
15.9,123,-2.8,0.7
15.9,123,-2.9,1.3
15.9,123,-3,1.8
15.9,124,-3,2.2
15.9,124,-2.9,2.6
15.9,124,-2.7,2.9
15.9,124,-2.4,3.2
15.9,124,-1.9,3.4
15.9,124,-1.3,3.6
15.9,124,-0.7,3.8
15.9,124,0,4
15.9,124,0.7,4.2
15.9,124,1.3,4.4
15.9,124,2,4.6
15.9,124,2.6,4.6
15.9,124,3.1,4.6
15.9,124,3.6,4.4
15.9,124,4,4.2
15.9,124,4.3,3.8
15.9,124,4.6,3.4
15.9,124,4.8,2.9
15.9,124,5,2.4
15.9,124,5.1,2
16,124,5.1,1.6
16,124,5.1,1.2
16,124,5,1
16,124,4.9,0.8
16,124,4.7,0.7
16,124,4.6,0.7
16,124,4.4,0.7
16,124,4.2,0.7
16,124,4,0.8
16,124,3.8,1.1
16,124,3.6,1.3
16,124,3.4,1.6
16,125,3.1,1.9
16,125,2.7,2.2
16,125,2.2,2.4
16,125,1.6,2.6
16,125,1,2.8
16,125,0.4,2.9
16,125,-0.1,3.1
16,125,-0.6,3.1
16,125,-1,3.2
16,125,-1.3,3.2
16,125,-1.5,3.2
16,125,-1.5,3.2
16,125,-1.5,3.2
16.1,125,-1.3,3.2
16.1,125,-1.1,3.2
16.1,125,-0.8,3.3
16.1,125,-0.5,3.3
16.1,125,-0.1,3.4
16.1,125,0.3,3.5
16.1,125,0.8,3.4
16.1,125,1.3,3.3
16.1,125,1.8,3.2
16.1,125,2.3,3
16.1,125,2.8,2.8
16.1,125,3.2,2.6
16.1,125,3.5,2.5
16.1,125,3.6,2.3
16.1,125,3.7,2.1
16.1,125,3.7,1.9
16.1,125,3.7,1.8
16.1,125,3.6,1.6
16.1,125,3.4,1.4
16.1,126,3.2,1.3
16.1,126,2.9,1.2
16.1,126,2.7,1.1
16.1,126,2.4,1.2
16.1,126,2.2,1.3
16.1,126,2.1,1.5
16.2,126,1.9,1.7
16.2,126,1.8,1.9
16.2,126,1.7,2.2
16.2,126,1.5,2.4
16.2,126,1.4,2.5
16.2,126,1.3,2.7
16.2,126,1.2,2.8
16.2,126,1.1,2.9
16.2,126,1.1,3
16.2,126,1.2,3.1
16.2,126,1.3,3.1
16.2,126,1.3,3.1
16.2,126,1.4,2.9
16.2,126,1.4,2.6
16.2,126,1.4,2.2
16.2,126,1.3,1.8
16.2,126,1.2,1.3
16.2,126,1.2,0.7
16.2,126,1.1,0.2
16.2,126,1.1,-0.2
16.2,126,1,-0.6
16.2,126,1,-0.8
16.2,126,1,-1
16.2,126,1,-1
16.2,126,0.9,-0.9
16.3,126,0.9,-0.8
16.3,127,0.8,-0.6
16.3,127,0.6,-0.3
16.3,127,0.4,0.1
16.3,127,0.1,0.5
16.3,127,-0.2,0.9
16.3,127,-0.6,1.2
16.3,127,-1.1,1.5
16.3,127,-1.7,1.7
16.3,127,-2.4,1.9
16.3,127,-3.2,2
16.3,127,-3.9,2.1
16.3,127,-4.6,2.2
16.3,127,-5.2,2.3
16.3,127,-5.6,2.3
16.3,127,-5.9,2.3
16.3,127,-6,2.2
16.3,127,-6.1,2.1
16.3,127,-6.1,1.8
16.3,127,-6.1,1.4
16.3,127,-6.2,0.9
16.3,127,-6.5,0.2
16.3,127,-6.8,-0.5
16.3,127,-7.1,-1.3
16.3,127,-7.3,-1.9
16.4,127,-7.4,-2.4
16.4,127,-7.2,-2.7
16.4,127,-6.8,-2.9
16.4,127,-6.2,-2.8
16.4,127,-5.5,-2.6
16.4,127,-4.6,-2.2
16.4,127,-3.7,-1.9
16.4,127,-2.7,-1.5
16.4,128,-1.8,-1.1
16.4,128,-0.9,-0.7
16.4,128,0,-0.3
16.4,128,0.8,0.1
16.4,128,1.6,0.5
16.4,128,2.4,0.9
16.4,128,3.1,1.2
16.4,128,3.8,1.4
16.4,128,4.4,1.4
16.4,128,5,1.3
16.4,128,5.4,1.1
16.4,128,5.8,0.8
16.4,128,6.2,0.4
16.4,128,6.4,-0.1
16.4,128,6.5,-0.5
16.4,128,6.5,-1.1
16.4,128,6.3,-1.6
16.5,128,5.8,-2.2
16.5,128,5.2,-2.7
16.5,128,4.4,-3.3
16.5,128,3.4,-3.8
16.5,128,2.4,-4.2
16.5,128,1.3,-4.5
16.5,128,0.3,-4.6
16.5,128,-0.6,-4.6
16.5,128,-1.5,-4.5
16.5,128,-2.3,-4.2
16.5,128,-2.9,-3.8
16.5,128,-3.3,-3.3
16.5,128,-3.6,-2.7
16.5,128,-3.6,-2.1
16.5,128,-3.5,-1.4
16.5,129,-3.2,-0.8
16.5,129,-2.8,-0.3
16.5,129,-2.3,0.2
16.5,129,-1.8,0.7
16.5,129,-1.2,1
16.5,129,-0.5,1.4
16.5,129,0.2,1.8
16.5,129,0.9,2.3
16.5,129,1.6,2.7
16.5,129,2.2,3
16.6,129,2.6,3.2
16.6,129,2.9,3.3
16.6,129,3,3.2
16.6,129,3,3
16.6,129,2.8,2.8
16.6,129,2.5,2.6
16.6,129,2.1,2.3
16.6,129,1.7,2
16.6,129,1.1,1.6
16.6,129,0.5,1.3
16.6,129,-0.1,0.9
16.6,129,-0.7,0.5
16.6,129,-1.2,0.1
16.6,129,-1.7,-0.2
16.6,129,-2.1,-0.6
16.6,129,-2.5,-0.8
16.6,129,-2.7,-1.1
16.6,129,-2.8,-1.2
16.6,129,-2.9,-1.3
16.6,129,-2.8,-1.3
16.6,129,-2.5,-1.2
16.6,129,-2.2,-0.9
16.6,130,-1.8,-0.5
16.6,130,-1.3,-0.1
16.6,130,-0.8,0.4
16.7,130,-0.3,0.8
16.7,130,0.1,1.2
16.7,130,0.6,1.5
16.7,130,1.1,1.7
16.7,130,1.6,1.8
16.7,130,2.1,1.9
16.7,130,2.6,1.9
16.7,130,3.1,1.8
16.7,130,3.6,1.7
16.7,130,4.1,1.5
16.7,130,4.5,1.3
16.7,130,4.8,1.2
16.7,130,5,1
16.7,130,5.1,0.8
16.7,130,5,0.5
16.7,130,4.8,0.2
16.7,130,4.5,-0.1
16.7,130,4,-0.4
16.7,130,3.4,-0.7
16.7,130,2.8,-1
16.7,130,2.1,-1.3
16.7,130,1.4,-1.5
16.7,130,0.7,-1.6
16.7,130,0,-1.7
16.7,130,-0.5,-1.7
16.8,130,-0.9,-1.7
16.8,130,-1.2,-1.7
16.8,130,-1.4,-1.7
16.8,130,-1.5,-1.7
16.8,131,-1.5,-1.6
16.8,131,-1.4,-1.5
16.8,131,-1.2,-1.3
16.8,131,-1,-1.2
16.8,131,-0.8,-1
16.8,131,-0.4,-0.8
16.8,131,-0.1,-0.6
16.8,131,0.3,-0.3
16.8,131,0.7,-0.1
16.8,131,1.1,0
16.8,131,1.5,0.2
16.8,131,1.8,0.2
16.8,131,2.1,0.2
16.8,131,2.2,0.2
16.8,131,2.2,0.1
16.8,131,2.1,0
16.8,131,2,-0.1
16.8,131,1.7,-0.2
16.8,131,1.4,-0.3
16.8,131,1,-0.5
16.8,131,0.6,-0.6
16.9,131,0.4,-0.8
16.9,131,0.2,-1
16.9,131,0.2,-1.2
16.9,131,0.4,-1.3
16.9,131,0.7,-1.4
16.9,131,1.2,-1.4
16.9,131,1.6,-1.4
16.9,131,2.1,-1.4
16.9,131,2.6,-1.4
16.9,131,3,-1.4
16.9,131,3.4,-1.4
16.9,132,3.7,-1.4
16.9,132,4,-1.4
16.9,132,4.3,-1.3
16.9,132,4.5,-1.3
16.9,132,4.7,-1.2
16.9,132,4.8,-1.2
16.9,132,4.8,-1.1
16.9,132,4.8,-1
16.9,132,4.8,-0.8
16.9,132,4.7,-0.6
16.9,132,4.6,-0.3
16.9,132,4.3,0.1
16.9,132,3.9,0.5
16.9,132,3.4,1
17,132,2.8,1.5
17,132,2.1,2.1
17,132,1.3,2.6
17,132,0.6,3.1
17,132,0,3.5
17,132,-0.6,3.9
17,132,-1,4.1
17,132,-1.2,4.2
17,132,-1.4,4.2
17,132,-1.4,4
17,132,-1.4,3.6
17,132,-1.3,3.2
17,132,-1.3,2.7
17,132,-1.2,2.2
17,132,-1.1,1.7
17,132,-1.1,1.3
17,132,-1.2,0.9
17,132,-1.4,0.6
17,133,-1.6,0.3
17,133,-1.9,0.1
17,133,-2.1,0
17,133,-2.2,-0.1
17,133,-2.4,-0.1
17,133,-2.4,0
17,133,-2.5,0.1
17.1,133,-2.5,0.3
17.1,133,-2.5,0.4
17.1,133,-2.5,0.5
17.1,133,-2.5,0.5
17.1,133,-2.6,0.3
17.1,133,-2.6,0
17.1,133,-2.8,-0.6
17.1,133,-3,-1.4
17.1,133,-3.5,-2.7
17.1,133,-4.2,-4.8
17.1,133,-5.2,-7.9
17.1,133,-6.4,-12.3
17.1,133,-7.9,-18.3
17.1,133,-9.5,-25.8
17.1,133,-11.4,-34.9
17.1,133,-13.5,-45.4
17.1,133,-15.7,-57.4
17.1,133,-18.2,-70.6
17.1,133,-20.8,-84.7
17.1,133,-23.5,-99.3
17.1,133,-26.4,-114.3
17.1,133,-29.4,-129.1
17.1,133,-32.4,-143.3
17.1,133,-35.3,-156.6
17.1,133,-38,-168.5
17.2,134,-40.4,-178.6
17.2,134,-42.5,-186.7
17.2,134,-44.2,-192.6
17.2,134,-45.7,-196.2
17.2,134,-46.8,-197.4
17.2,134,-47.7,-196.1
17.2,134,-48.4,-192.4
17.2,134,-48.9,-186.4
17.2,134,-49.2,-178.4
17.2,134,-49.5,-168.3
17.2,134,-49.5,-156.6
17.2,134,-49.5,-143.5
17.2,134,-49.2,-129.3
17.2,134,-48.7,-114.4
17.2,134,-48,-99.2
17.2,134,-46.9,-84
17.2,134,-45.5,-69
17.2,134,-43.7,-54.2
17.2,134,-41.6,-39.8
17.2,134,-39,-25.9
17.2,134,-36.1,-12.4
17.2,134,-32.8,0.5
17.2,134,-29.2,12.9
17.2,134,-25.3,24.7
17.2,134,-21,36.1
17.3,134,-16.6,46.9
17.3,134,-11.9,57.2
17.3,134,-7.2,67.1
17.3,134,-2.5,76.6
17.3,134,2.2,85.6
17.3,134,6.6,94.3
17.3,134,10.7,102.6
17.3,135,14.6,110.6
17.3,135,18.1,118.3
17.3,135,21.4,125.5
17.3,135,24.3,132.4
17.3,135,27.1,138.9
17.3,135,29.6,144.9
17.3,135,31.8,150.5
17.3,135,33.9,155.7
17.3,135,35.9,160.5
17.3,135,37.9,165
17.3,135,40,169.2
17.3,135,42.2,173
17.3,135,44.5,176.4
17.3,135,47,179.3
17.3,135,49.4,181.9
17.3,135,51.8,184
17.3,135,54.1,185.7
17.3,135,56.2,187
17.4,135,58.1,187.9
17.4,135,59.8,188.4
17.4,135,61.4,188.5
17.4,135,62.8,188.3
17.4,135,64.2,187.6
17.4,135,65.5,186.6
17.4,135,66.6,185.3
17.4,135,67.5,183.8
17.4,135,68,182.1
17.4,135,68.2,180.5
17.4,135,68.2,179
17.4,135,68,177.9
17.4,135,67.5,177.2
17.4,135,66.7,176.9
17.4,136,65.7,177
17.4,136,64.5,177.6
17.4,136,63.2,178.6
17.4,136,61.6,179.7
17.4,136,60,181
17.4,136,58.3,182.1
17.4,136,56.6,182.9
17.4,136,55,183.2
17.4,136,53.4,182.8
17.4,136,51.9,181.5
17.4,136,50.6,179.3
17.5,136,49.3,176
17.5,136,48.2,171.6
17.5,136,47,166
17.5,136,45.8,159.3
17.5,136,44.6,151.7
17.5,136,43.4,143.1
17.5,136,42.1,133.7
17.5,136,40.7,123.7
17.5,136,39.2,113.3
17.5,136,37.6,102.6
17.5,136,35.8,91.8
17.5,136,34,81.1
17.5,136,32,70.6
17.5,136,30.1,60.3
17.5,136,28.1,50.3
17.5,136,26.2,40.7
17.5,136,24.2,31.4
17.5,136,22.2,22.5
17.5,136,20.2,14
17.5,136,18.2,5.8
17.5,136,16.1,-2.1
17.5,137,14,-9.6
17.5,137,12,-16.9
17.5,137,9.9,-23.7
17.5,137,8,-30.3
17.6,137,6.2,-36.5
17.6,137,4.5,-42.4
17.6,137,3,-48.1
17.6,137,1.7,-53.5
17.6,137,0.6,-58.7
17.6,137,-0.4,-63.7
17.6,137,-1.2,-68.5
17.6,137,-1.8,-73
17.6,137,-2.4,-77.2
17.6,137,-3,-81.1
17.6,137,-3.7,-84.8
17.6,137,-4.3,-88.4
17.6,137,-5,-91.8
17.6,137,-5.6,-95
17.6,137,-6.3,-98.1
17.6,137,-6.9,-101.2
17.6,137,-7.6,-104.2
17.6,137,-8.5,-107.2
17.6,137,-9.4,-110.2
17.6,137,-10.2,-113.1
17.6,137,-10.9,-115.9
17.6,137,-11.4,-118.4
17.6,137,-11.6,-120.6
17.6,137,-11.6,-122.7
17.6,137,-11.4,-124.5
17.7,137,-11.1,-126.2
17.7,137,-10.7,-127.8
17.7,137,-10.5,-129.4
17.7,138,-10.3,-130.8
17.7,138,-10.4,-132.1
17.7,138,-10.6,-133.2
17.7,138,-11,-134.1
17.7,138,-11.7,-134.8
17.7,138,-12.6,-135.2
17.7,138,-13.7,-135.3
17.7,138,-14.8,-135.1
17.7,138,-16.1,-134.6
17.7,138,-17.4,-133.8
17.7,138,-18.8,-132.7
17.7,138,-20.2,-131.6
17.7,138,-21.7,-130.4
17.7,138,-23.3,-129.4
17.7,138,-24.8,-128.3
17.7,138,-26.3,-127.3
17.7,138,-27.8,-126.3
17.7,138,-29.1,-125.3
17.7,138,-30.3,-124.1
17.7,138,-31.4,-122.8
17.7,138,-32.4,-121.5
17.7,138,-33.2,-119.9
17.8,138,-33.9,-118.4
17.8,138,-34.5,-116.8
17.8,138,-35,-115.2
17.8,138,-35.4,-113.5
17.8,138,-35.6,-111.9
17.8,138,-35.6,-110.2
17.8,138,-35.5,-108.4
17.8,138,-35.3,-106.5
17.8,138,-35.1,-104.5
17.8,138,-34.8,-102.3
17.8,139,-34.6,-100.1
17.8,139,-34.4,-97.9
17.8,139,-34.3,-95.7
17.8,139,-34.3,-93.5
17.8,139,-34.3,-91.3
17.8,139,-34.4,-89.2
17.8,139,-34.6,-87
17.8,139,-34.8,-84.8
17.8,139,-34.9,-82.5
17.8,139,-35.1,-80.1
17.8,139,-35.3,-77.7
17.8,139,-35.4,-75.3
17.8,139,-35.5,-72.9
17.8,139,-35.4,-70.6
17.8,139,-35.2,-68.2
17.9,139,-34.8,-65.9
17.9,139,-34.3,-63.6
17.9,139,-33.7,-61.4
17.9,139,-33,-59.4
17.9,139,-32.3,-57.4
17.9,139,-31.5,-55.5
17.9,139,-30.6,-53.5
17.9,139,-29.7,-51.4
17.9,139,-28.7,-49.2
17.9,139,-27.8,-47
17.9,139,-26.9,-44.7
17.9,139,-26.2,-42.4
17.9,139,-25.7,-40.1
17.9,139,-25.4,-37.9
17.9,139,-25.3,-35.6
17.9,139,-25.2,-33.5
17.9,139,-25.3,-31.3
17.9,140,-25.3,-29.3
17.9,140,-25.4,-27.3
17.9,140,-25.4,-25.4
17.9,140,-25.3,-23.5
17.9,140,-25.2,-21.6
17.9,140,-25,-19.7
17.9,140,-24.7,-17.8
17.9,140,-24.3,-16
18,140,-23.9,-14.2
18,140,-23.4,-12.3
18,140,-22.8,-10.4
18,140,-22.1,-8.4
18,140,-21.4,-6.3
18,140,-20.7,-4.2
18,140,-19.9,-2
18,140,-19.2,0.2
18,140,-18.6,2.4
18,140,-18.1,4.5
18,140,-17.8,6.6
18,140,-17.5,8.5
18,140,-17.3,10.2
18,140,-17.1,11.8
18,140,-16.8,13.2
18,140,-16.5,14.5
18,140,-16,15.8
18,140,-15.4,16.9
18,140,-14.6,18
18,140,-13.7,19.1
18,140,-12.6,20.2
18,140,-11.4,21.3
18,140,-10.1,22.5
18,140,-8.6,23.7
18,141,-7.2,24.9
18.1,141,-5.8,26.2
18.1,141,-4.5,27.6
18.1,141,-3.2,29.1
18.1,141,-2.2,30.7
18.1,141,-1.2,32.4
18.1,141,-0.3,34.1
18.1,141,0.5,35.8
18.1,141,1.2,37.4
18.1,141,1.9,39
18.1,141,2.5,40.4
18.1,141,3.1,41.6
18.1,141,3.6,42.5
18.1,141,4.1,43.1
18.1,141,4.6,43.3
18.1,141,5,43.4
18.1,141,5.4,43.2
18.1,141,5.7,43
18.1,141,6,42.6
18.1,141,6.2,42.2
18.1,141,6.4,42
18.1,141,6.8,41.9
18.1,141,7.3,42.1
18.1,141,7.9,42.6
18.1,141,8.6,43.3
18.1,141,9.4,44.3
18.2,141,10.2,45.4
18.2,141,11,46.7
18.2,141,11.8,48.1
18.2,141,12.4,49.4
18.2,141,13,50.6
18.2,141,13.5,51.7
18.2,142,13.9,52.6
18.2,142,14.2,53.4
18.2,142,14.4,53.9
18.2,142,14.6,54.3
18.2,142,14.7,54.3
18.2,142,14.8,54.1
18.2,142,14.8,53.6
18.2,142,14.7,52.9
18.2,142,14.6,51.8
18.2,142,14.5,50.7
18.2,142,14.4,49.4
18.2,142,14.2,48
18.2,142,14.1,46.7
18.2,142,14,45.4
18.2,142,13.9,44.2
18.2,142,13.8,43.1
18.2,142,13.7,42.1
18.2,142,13.5,41.2
18.2,142,13.2,40.5
18.3,142,12.8,39.8
18.3,142,12.4,39.3
18.3,142,11.9,38.7
18.3,142,11.3,38
18.3,142,10.8,37.4
18.3,142,10.4,36.6
18.3,142,10.1,35.8
18.3,142,10,35
18.3,142,9.9,34.2
18.3,142,9.9,33.4
18.3,142,10,32.6
18.3,142,10.1,31.8
18.3,142,10.3,31.1
18.3,143,10.5,30.6
18.3,143,10.7,30.2
18.3,143,10.9,29.8
18.3,143,11.1,29.6
18.3,143,11.3,29.3
18.3,143,11.5,29.1
18.3,143,11.6,28.8
18.3,143,11.7,28.4
18.3,143,11.7,27.9
18.3,143,11.7,27.3
18.3,143,11.7,26.5
18.3,143,11.7,25.6
18.4,143,11.7,24.6
18.4,143,11.7,23.5
18.4,143,11.7,22.3
18.4,143,11.6,20.9
18.4,143,11.5,19.5
18.4,143,11.2,17.9
18.4,143,10.9,16.3
18.4,143,10.5,14.8
18.4,143,10,13.4
18.4,143,9.4,12.2
18.4,143,8.9,11.3
18.4,143,8.4,10.8
18.4,143,8,10.5
18.4,143,7.7,10.6
18.4,143,7.4,10.8
18.4,143,7.1,11.2
18.4,143,6.9,11.6
18.4,143,6.6,11.9
18.4,143,6.4,12.1
18.4,143,6.1,12.4
18.4,144,5.8,12.5
18.4,144,5.5,12.7
18.4,144,5.1,12.8
18.4,144,4.8,12.9
18.4,144,4.3,12.7
18.5,144,3.8,12.1
18.5,144,3.2,11.2
18.5,144,2.4,9.9
18.5,144,1.6,8.1
18.5,144,0.8,5.9
18.5,144,-0.2,3
18.5,144,-1.2,-0.5
18.5,144,-2.3,-4.6
18.5,144,-3.6,-9.4
18.5,144,-5,-14.7
18.5,144,-6.6,-20.5
18.5,144,-8.3,-26.5
18.5,144,-10.1,-32.5
18.5,144,-11.9,-38.2
18.5,144,-13.6,-43.3
18.5,144,-15.1,-47.4
18.5,144,-16.3,-50.4
18.5,144,-17.1,-52.1
18.5,144,-17.4,-52.6
18.5,144,-17.3,-51.8
18.5,144,-16.8,-49.9
18.5,144,-16,-47.1
18.5,144,-14.8,-43.4
18.5,144,-13.3,-39.1
18.5,144,-11.5,-34.4
18.6,144,-9.6,-29.3
18.6,144,-7.6,-24.2
18.6,145,-5.5,-19.1
18.6,145,-3.3,-14.3
18.6,145,-1.2,-9.7
18.6,145,1,-5.4
18.6,145,3,-1.5
18.6,145,4.8,2.1
18.6,145,6.5,5.3
18.6,145,7.9,8.2
18.6,145,9,10.6
18.6,145,9.9,12.8
18.6,145,10.6,14.8
18.6,145,11.1,16.4
18.6,145,11.5,17.8
18.6,145,11.8,18.9
18.6,145,12.1,19.8
18.6,145,12.4,20.5
18.6,145,12.7,20.9
18.6,145,13.1,21.2
18.6,145,13.5,21.4
18.6,145,13.8,21.5
18.6,145,14.1,21.5
18.6,145,14.2,21.4
18.6,145,14.1,21.3
18.7,145,13.9,21.1
18.7,145,13.5,21
18.7,145,12.9,20.8
18.7,145,12.2,20.7
18.7,145,11.5,20.6
18.7,145,10.7,20.6
18.7,145,10,20.6
18.7,145,9.3,20.7
18.7,145,8.7,20.8
18.7,146,8.2,21
18.7,146,7.9,21.3
18.7,146,7.7,21.6
18.7,146,7.6,21.9
18.7,146,7.6,22.3
18.7,146,7.8,22.7
18.7,146,8.1,23.1
18.7,146,8.6,23.6
18.7,146,9.2,24.1
18.7,146,9.8,24.5
18.7,146,10.6,24.7
18.7,146,11.4,24.7
18.7,146,12.1,24.4
18.7,146,12.8,23.9
18.7,146,13.4,23.2
18.7,146,13.8,22.3
18.8,146,14.2,21.3
18.8,146,14.4,20.4
18.8,146,14.4,19.3
18.8,146,14.2,18.2
18.8,146,13.7,17
18.8,146,13,15.6
18.8,146,12,13.9
18.8,146,10.8,12
18.8,146,9.6,9.9
18.8,146,8.4,7.4
18.8,146,7.2,4.6
18.8,146,5.9,1.5
18.8,146,4.7,-2
18.8,146,3.5,-5.8
18.8,146,2.2,-9.9
18.8,146,0.8,-14.2
18.8,147,-0.6,-18.4
18.8,147,-2,-22.4
18.8,147,-3.4,-26.1
18.8,147,-4.6,-29.2
18.8,147,-5.7,-31.7
18.8,147,-6.7,-33.6
18.8,147,-7.6,-34.8
18.8,147,-8.3,-35.2
18.8,147,-8.9,-34.9
18.9,147,-9.5,-34
18.9,147,-9.9,-32.5
18.9,147,-10.2,-30.6
18.9,147,-10.4,-28.4
18.9,147,-10.3,-26.1
18.9,147,-10.1,-23.5
18.9,147,-9.6,-20.8
18.9,147,-8.8,-18.1
18.9,147,-7.9,-15.3
18.9,147,-6.7,-12.6
18.9,147,-5.5,-9.9
18.9,147,-4.3,-7.4
18.9,147,-3.1,-5
18.9,147,-1.9,-2.9
18.9,147,-0.9,-1
18.9,147,0,0.5
18.9,147,0.7,1.8
18.9,147,1.4,2.7
18.9,147,1.9,3.4
18.9,147,2.3,3.9
18.9,147,2.7,4.2
18.9,147,2.9,4.4
18.9,147,3.1,4.5
18.9,148,3.2,4.7
18.9,148,3.3,4.9
19,148,3.3,5.4
19,148,3.4,5.9
19,148,3.4,6.5
19,148,3.4,7
19,148,3.4,7.6
19,148,3.3,8
19,148,3.3,8.4
19,148,3.2,8.8
19,148,3.2,9.1
19,148,3.2,9.4
19,148,3.4,9.8
19,148,3.6,10.1
19,148,3.9,10.4
19,148,4.2,10.7
19,148,4.7,11
19,148,5.3,11.3
19,148,5.8,11.7
19,148,6.4,12.1
19,148,6.9,12.5
19,148,7.3,12.9
19,148,7.6,13.2
19,148,7.6,13.3
19,148,7.4,13.4
19,148,7.1,13.4
19,148,6.7,13.3
19.1,148,6.2,13.1
19.1,148,5.6,12.7
19.1,148,5,12.2
19.1,148,4.4,11.5
19.1,148,3.8,10.5
19.1,149,3.2,9.4
19.1,149,2.6,8.3
19.1,149,2,7.1
19.1,149,1.5,5.9
19.1,149,1.1,4.8
19.1,149,0.9,3.7
19.1,149,0.8,2.8
19.1,149,0.9,2
19.1,149,1.1,1.3
19.1,149,1.4,0.6
19.1,149,1.9,0.1
19.1,149,2.4,-0.3
19.1,149,2.9,-0.7
19.1,149,3.3,-1
19.1,149,3.8,-1.3
19.1,149,4.1,-1.5
19.1,149,4.3,-1.7
19.1,149,4.3,-2
19.1,149,4.1,-2.4
19.1,149,3.7,-2.7
19.2,149,3.1,-3.2
19.2,149,2.3,-3.6
19.2,149,1.3,-4.1
19.2,149,0.1,-4.6
19.2,149,-1.2,-5.1
19.2,149,-2.7,-5.7
19.2,149,-4.1,-6.2
19.2,149,-5.4,-6.8
19.2,149,-6.7,-7.4
19.2,149,-7.8,-7.8
19.2,149,-8.7,-8.2
19.2,149,-9.5,-8.4
19.2,150,-10.3,-8.6
19.2,150,-10.9,-8.6
19.2,150,-11.5,-8.5
19.2,150,-12,-8.4
19.2,150,-12.3,-8.3
19.2,150,-12.6,-8.2
19.2,150,-12.7,-8.1
19.2,150,-12.7,-8
19.2,150,-12.5,-8
19.2,150,-12.3,-8.1
19.2,150,-12,-8.3
19.2,150,-11.6,-8.7
19.2,150,-11.1,-9.1
19.3,150,-10.5,-9.6
19.3,150,-9.9,-10.1
19.3,150,-9.3,-10.6
19.3,150,-8.7,-11.1
19.3,150,-8,-11.5
19.3,150,-7.5,-11.9
19.3,150,-7,-12.2
19.3,150,-6.6,-12.5
19.3,150,-6.3,-12.8
19.3,150,-6.2,-13
19.3,150,-6.2,-13.1
19.3,150,-6.4,-13.3
19.3,150,-6.6,-13.4
19.3,150,-6.9,-13.5
19.3,150,-7.2,-13.6
19.3,150,-7.5,-13.8
19.3,150,-7.7,-14.1
19.3,150,-7.8,-14.3
19.3,150,-7.8,-14.6
19.3,151,-7.7,-14.7
19.3,151,-7.6,-14.8
19.3,151,-7.3,-14.9
19.3,151,-6.9,-14.8
19.3,151,-6.3,-14.6
19.3,151,-5.6,-14.3
19.4,151,-4.7,-13.9
19.4,151,-3.7,-13.4
19.4,151,-2.7,-12.8
19.4,151,-1.8,-12.2
19.4,151,-0.8,-11.6
19.4,151,0,-11
19.4,151,0.7,-10.4
19.4,151,1.1,-10
19.4,151,1.4,-9.8
19.4,151,1.4,-9.8
19.4,151,1.2,-10
19.4,151,0.8,-10.3
19.4,151,0.1,-10.9
19.4,151,-0.8,-11.6
19.4,151,-1.8,-12.3
19.4,151,-2.9,-13.1
19.4,151,-4,-13.8
19.4,151,-5.1,-14.4
19.4,151,-5.9,-14.9
19.4,151,-6.6,-15.3
19.4,151,-7,-15.6
19.4,151,-7.3,-15.7
19.4,151,-7.2,-15.7
19.4,151,-7,-15.6
19.4,151,-6.5,-15.5
19.5,151,-5.8,-15.2
19.5,152,-4.9,-14.7
19.5,152,-3.9,-14.1
19.5,152,-2.8,-13.3
19.5,152,-1.7,-12.4
19.5,152,-0.6,-11.4
19.5,152,0.3,-10.4
19.5,152,1.1,-9.4
19.5,152,1.8,-8.5
19.5,152,2.2,-7.6
19.5,152,2.3,-6.8
19.5,152,2.3,-6.1
19.5,152,2.1,-5.6
19.5,152,1.7,-5.1
19.5,152,1.2,-4.8
19.5,152,0.6,-4.7
19.5,152,-0.1,-4.6
19.5,152,-0.8,-4.7
19.5,152,-1.5,-4.9
19.5,152,-2.2,-5.2
19.5,152,-2.9,-5.5
19.5,152,-3.4,-5.9
19.5,152,-3.9,-6.3
19.5,152,-4.2,-6.7
19.5,152,-4.4,-7
19.6,152,-4.6,-7.2
19.6,152,-4.5,-7.2
19.6,152,-4.4,-7.1
19.6,152,-4.2,-6.9
19.6,152,-3.9,-6.6
19.6,152,-3.6,-6.3
19.6,152,-3.4,-6
19.6,152,-3.2,-5.6
19.6,153,-3.1,-5.2
19.6,153,-3.1,-4.7
19.6,153,-3.2,-4.2
19.6,153,-3.2,-3.8
19.6,153,-3.3,-3.3
19.6,153,-3.4,-2.8
19.6,153,-3.4,-2.4
19.6,153,-3.3,-2
19.6,153,-3,-1.6
19.6,153,-2.6,-1.3
19.6,153,-2.1,-1
19.6,153,-1.4,-0.8
19.6,153,-0.5,-0.7
19.6,153,0.3,-0.6
19.6,153,1.1,-0.6
19.6,153,1.8,-0.7
19.6,153,2.4,-0.8
19.7,153,2.9,-0.8
19.7,153,3.3,-0.8
19.7,153,3.6,-0.6
19.7,153,3.8,-0.4
19.7,153,3.9,0
19.7,153,4,0.4
19.7,153,4.1,1
19.7,153,4,1.6
19.7,153,4,2.4
19.7,153,3.8,3.2
19.7,153,3.7,4.1
19.7,153,3.6,5.1
19.7,153,3.4,6
19.7,153,3.4,6.9
19.7,153,3.4,7.6
19.7,154,3.4,8.2
19.7,154,3.4,8.7
19.7,154,3.5,8.9
19.7,154,3.5,9
19.7,154,3.4,9
19.7,154,3.3,8.8
19.7,154,3.1,8.6
19.7,154,2.9,8.3
19.7,154,2.7,8
19.7,154,2.4,7.8
19.8,154,2.2,7.6
19.8,154,1.9,7.5
19.8,154,1.8,7.5
19.8,154,1.6,7.6
19.8,154,1.6,7.8
19.8,154,1.6,8.1
19.8,154,1.7,8.4
19.8,154,1.8,8.8
19.8,154,2,9.1
19.8,154,2.2,9.4
19.8,154,2.3,9.7
19.8,154,2.3,10.1
19.8,154,2.3,10.3
19.8,154,2.1,10.5
19.8,154,1.9,10.6
19.8,154,1.6,10.7
19.8,154,1.4,10.6
19.8,154,1.2,10.5
19.8,154,1.2,10.4
19.8,154,1.2,10.1
19.8,154,1.2,9.9
19.8,154,1.4,9.6
19.8,155,1.6,9.4
19.8,155,1.8,9.1
19.8,155,2.1,8.9
19.9,155,2.5,8.7
19.9,155,2.9,8.5
19.9,155,3.4,8.3
19.9,155,3.8,8.1
19.9,155,4.3,7.9
19.9,155,4.7,7.7
19.9,155,5,7.3
19.9,155,5.3,7
19.9,155,5.5,6.6
19.9,155,5.7,6.2
19.9,155,5.8,5.9
19.9,155,5.7,5.6
19.9,155,5.7,5.3
19.9,155,5.5,5.1
19.9,155,5.2,4.8
19.9,155,4.8,4.6
19.9,155,4.2,4.4
19.9,155,3.6,4.3
19.9,155,2.8,4.2
19.9,155,2,4.3
19.9,155,1.2,4.4
19.9,155,0.5,4.6
19.9,155,-0.2,4.8
19.9,155,-0.7,4.9
19.9,155,-1,5
20,155,-1.2,5
20,155,-1.3,4.9
20,155,-1.1,4.7
20,155,-0.8,4.4
20,156,-0.5,3.9
20,156,-0.1,3.3
20,156,0.2,2.7
20,156,0.4,2
20,156,0.6,1.3
20,156,0.5,0.7
20,156,0.3,0.2
20,156,0,-0.2
20,156,-0.5,-0.6
20,156,-1.2,-0.9
20,156,-2,-1.1
20,156,-2.8,-1.4
20,156,-3.8,-1.7
20,156,-4.9,-2.1
20,156,-6,-2.5
20,156,-7,-3
20,156,-7.9,-3.5
20,156,-8.5,-4.1
20,156,-8.9,-4.6
20,156,-8.8,-5
20,156,-8.4,-5.1
20.1,156,-7.7,-5
20.1,156,-6.6,-4.7
20.1,156,-5.2,-4.2
20.1,156,-3.6,-3.5
20.1,156,-1.9,-2.7
20.1,156,-0.2,-1.9
20.1,156,1.5,-1.2
20.1,156,2.9,-0.6
20.1,156,4.2,-0.2
20.1,156,5.2,0.2
20.1,156,6,0.4
20.1,157,6.4,0.4
20.1,157,6.5,0.4
20.1,157,6.4,0.2
20.1,157,6.1,0
20.1,157,5.5,-0.1
20.1,157,4.9,-0.3
20.1,157,4.1,-0.4
20.1,157,3.4,-0.5
20.1,157,2.6,-0.6
20.1,157,1.9,-0.8
20.1,157,1.2,-0.9
20.1,157,0.6,-1.1
20.1,157,0,-1.2
20.1,157,-0.5,-1.4
20.2,157,-0.9,-1.5
20.2,157,-1.2,-1.6
20.2,157,-1.3,-1.6
20.2,157,-1.4,-1.6
20.2,157,-1.2,-1.6
20.2,157,-0.9,-1.6
20.2,157,-0.5,-1.5
20.2,157,-0.1,-1.4
20.2,157,0.3,-1.1
20.2,157,0.8,-0.7
20.2,157,1.2,-0.2
20.2,157,1.6,0.5
20.2,157,2,1.2
20.2,157,2.3,1.9
20.2,157,2.6,2.6
20.2,157,2.9,3.1
20.2,157,3.1,3.6
20.2,157,3.3,4
20.2,158,3.3,4.2
20.2,158,3.3,4.3
20.2,158,3.2,4.2
20.2,158,2.9,4.1
20.2,158,2.4,3.8
20.2,158,1.7,3.6
20.2,158,0.9,3.4
20.3,158,0,3.2
20.3,158,-0.9,3.2
20.3,158,-1.8,3.3
20.3,158,-2.5,3.3
20.3,158,-3.1,3.4
20.3,158,-3.5,3.4
20.3,158,-3.7,3.3
20.3,158,-3.8,3.2
20.3,158,-3.6,3
20.3,158,-3.4,2.7
20.3,158,-3.1,2.3
20.3,158,-2.7,1.9
20.3,158,-2.4,1.4
20.3,158,-1.9,1
20.3,158,-1.5,0.6
20.3,158,-1.2,0.2
20.3,158,-0.9,-0.1
20.3,158,-0.7,-0.5
20.3,158,-0.6,-0.8
20.3,158,-0.6,-1.1
20.3,158,-0.7,-1.4
20.3,158,-0.8,-1.7
20.3,158,-1,-2
20.3,158,-1.1,-2.4
20.3,158,-1.2,-2.9
20.4,159,-1.2,-3.3
20.4,159,-1,-3.8
20.4,159,-0.6,-4.1
20.4,159,-0.1,-4.3
20.4,159,0.6,-4.4
20.4,159,1.3,-4.4
20.4,159,2,-4.2
20.4,159,2.7,-3.8
20.4,159,3.3,-3.3
20.4,159,3.9,-2.6
20.4,159,4.3,-1.9
20.4,159,4.6,-1.1
20.4,159,4.8,-0.2
20.4,159,4.8,0.7
20.4,159,4.7,1.8
20.4,159,4.5,3.1
20.4,159,4.4,4.9
20.4,159,4.4,7.1
20.4,159,4.7,9.9
20.4,159,5.2,13.1
20.4,159,6,16.8
20.4,159,7,20.7
20.4,159,8.3,24.7
20.4,159,9.6,28.7
20.4,159,11.1,32.5
20.5,159,12.7,35.9
20.5,159,14.2,38.9
20.5,159,15.6,41.2
20.5,159,16.8,42.8
20.5,159,17.8,43.7
20.5,159,18.5,43.9
20.5,159,19,43.3
20.5,160,19.1,41.9
20.5,160,19,39.6
20.5,160,18.6,36.7
20.5,160,17.9,33.1
20.5,160,16.9,29
20.5,160,15.8,24.6
20.5,160,14.5,20.2
20.5,160,13.1,15.7
20.5,160,11.6,11.4
20.5,160,10.1,7.2
20.5,160,8.4,3.4
20.5,160,6.7,-0.1
20.5,160,5,-3.2
20.5,160,3.4,-5.9
20.5,160,1.8,-8.1
20.5,160,0.4,-9.9
20.5,160,-0.9,-11.3
20.5,160,-2,-12.3
20.6,160,-2.9,-12.8
20.6,160,-3.7,-13
20.6,160,-4.2,-12.7
20.6,160,-4.6,-12
20.6,160,-4.8,-10.9
20.6,160,-4.8,-9.7
20.6,160,-4.7,-8.2
20.6,160,-4.4,-6.7
20.6,160,-4.1,-5.2
20.6,160,-3.8,-3.9
20.6,160,-3.5,-2.7
20.6,160,-3.2,-1.9
20.6,160,-3.2,-1.4
20.6,160,-3.3,-1.3
20.6,161,-3.6,-1.6
20.6,161,-4.2,-2.4
20.6,161,-4.9,-3.5
20.6,161,-5.8,-5.1
20.6,161,-6.9,-6.9
20.6,161,-8,-9
20.6,161,-9.1,-11.3
20.6,161,-10.2,-13.7
20.6,161,-11.2,-16
20.6,161,-12.1,-18.3
20.6,161,-12.8,-20.4
20.7,161,-13.5,-22.3
20.7,161,-14.2,-24
20.7,161,-14.8,-25.4
20.7,161,-15.4,-26.7
20.7,161,-15.8,-27.7
20.7,161,-16.2,-28.6
20.7,161,-16.5,-29.3
20.7,161,-16.8,-30
20.7,161,-17,-30.6
20.7,161,-17.2,-31.3
20.7,161,-17.3,-31.9
20.7,161,-17.4,-32.6
20.7,161,-17.5,-33.3
20.7,161,-17.6,-33.9
20.7,161,-17.7,-34.5
20.7,161,-17.6,-34.9
20.7,161,-17.5,-35.1
20.7,161,-17.3,-35.2
20.7,161,-17,-35
20.7,161,-16.8,-34.7
20.7,161,-16.7,-34.3
20.7,162,-16.5,-33.7
20.7,162,-16.4,-33
20.7,162,-16.3,-32.2
20.7,162,-16.2,-31.2
20.8,162,-16,-30.2
20.8,162,-15.8,-29.2
20.8,162,-15.5,-28.2
20.8,162,-15.2,-27.2
20.8,162,-14.8,-26.3
20.8,162,-14.5,-25.5
20.8,162,-14.3,-24.8
20.8,162,-14.1,-24.3
20.8,162,-13.9,-23.9
20.8,162,-13.8,-23.7
20.8,162,-13.7,-23.6
20.8,162,-13.5,-23.4
20.8,162,-13.2,-23.3
20.8,162,-12.9,-23.2
20.8,162,-12.5,-23
20.8,162,-12,-22.8
20.8,162,-11.6,-22.5
20.8,162,-11.1,-22.1
20.8,162,-10.7,-21.8
20.8,162,-10.4,-21.5
20.8,162,-10.1,-21.1
20.8,162,-9.8,-20.7
20.8,162,-9.6,-20.2
20.8,162,-9.4,-19.8
20.8,162,-9.2,-19.3
20.9,162,-9.1,-18.9
20.9,162,-9.1,-18.5
20.9,162,-9.3,-18.2
20.9,163,-9.7,-18.1
20.9,163,-10.4,-18.2
20.9,163,-11.4,-18.5
20.9,163,-12.7,-19.2
20.9,163,-14.1,-20.1
20.9,163,-15.5,-21.2
20.9,163,-16.5,-22.3
20.9,163,-17.1,-23.5
20.9,163,-17,-24.4
20.9,163,-16.4,-25.2
20.9,163,-15.2,-25.8
20.9,163,-13.4,-26
20.9,163,-11.2,-25.8
20.9,163,-8.4,-25.3
20.9,163,-5.1,-24.2
20.9,163,-1.3,-22.7
20.9,163,2.9,-20.8
20.9,163,7.2,-18.6
20.9,163,11.7,-16.1
20.9,163,16.1,-13.3
20.9,163,20.5,-10.3
20.9,163,24.6,-7
21,163,28.4,-3.6
21,163,31.9,0
21,163,34.9,3.8
21,163,37.7,7.8
21,163,40.2,12
21,163,42.4,16.3
21,163,44.2,20.8
21,163,45.6,25.2
21,163,46.7,29.6
21,163,47.5,34.1
21,164,48.1,38.6
21,164,48.7,43.1
21,164,49.1,47.7
21,164,49.4,52.3
21,164,49.7,57
21,164,50.1,61.7
21,164,50.5,66.3
21,164,50.9,70.8
21,164,51.3,75.1
21,164,51.5,79.3
21,164,51.5,83.3
21,164,51.4,87.2
21,164,51.1,90.8
21,164,50.9,94.1
21,164,50.6,97.2
21.1,164,50.2,99.8
21.1,164,49.7,102
21.1,164,49.1,103.7
21.1,164,48.2,104.9
21.1,164,46.9,105.4
21.1,164,45.3,105.4
21.1,164,43.3,105
21.1,164,41.1,104
21.1,164,38.6,102.7
21.1,164,35.9,100.9
21.1,164,32.9,98.7
21.1,164,29.6,96.1
21.1,164,26,93.1
21.1,164,22.1,89.8
21.1,164,18.2,86.4
21.1,164,14.2,82.8
21.1,164,10.5,79.1
21.1,165,7,75.5
21.1,165,3.7,71.8
21.1,165,0.7,68.1
21.1,165,-2.1,64.4
21.1,165,-4.6,60.8
21.1,165,-6.8,57.3
21.1,165,-8.7,53.8
21.1,165,-10.2,50.3
21.2,165,-11.5,46.7
21.2,165,-12.6,43.1
21.2,165,-13.6,39.5
21.2,165,-14.8,35.8
21.2,165,-16.1,32
21.2,165,-17.5,28.2
21.2,165,-19.2,24.4
21.2,165,-21,20.6
21.2,165,-23.1,16.8
21.2,165,-25.2,13.2
21.2,165,-27.2,9.7
21.2,165,-29.1,6.3
21.2,165,-30.8,3
21.2,165,-32.5,-0.3
21.2,165,-34.1,-3.6
21.2,165,-35.8,-7
21.2,165,-37.6,-10.5
21.2,165,-39.5,-14.1
21.2,165,-41.5,-17.7
21.2,165,-43.4,-21.5
21.2,165,-45.3,-25.2
21.2,165,-47,-28.9
21.2,165,-48.6,-32.5
21.2,165,-50.1,-36
21.2,166,-51.4,-39.3
21.3,166,-52.6,-42.7
21.3,166,-53.5,-46
21.3,166,-54.2,-49.3
21.3,166,-54.7,-52.6
21.3,166,-55,-55.9
21.3,166,-55,-59.2
21.3,166,-55,-62.5
21.3,166,-54.7,-65.9
21.3,166,-54.4,-69.3
21.3,166,-53.9,-72.7
21.3,166,-53.3,-75.9
21.3,166,-52.5,-79
21.3,166,-51.6,-81.9
21.3,166,-50.5,-84.6
21.3,166,-49.3,-87
21.3,166,-48,-89
21.3,166,-46.7,-90.7
21.3,166,-45.4,-92.1
21.3,166,-44.1,-93.1
21.3,166,-42.9,-93.7
21.3,166,-41.8,-94
21.3,166,-40.7,-93.9
21.3,166,-39.6,-93.6
21.3,166,-38.5,-92.9
21.3,166,-37.3,-92
21.4,166,-36,-90.9
21.4,166,-34.6,-89.8
21.4,166,-33.1,-88.5
21.4,166,-31.5,-87.3
21.4,166,-30,-86.1
21.4,166,-28.3,-84.9
21.4,167,-26.7,-83.8
21.4,167,-25,-82.8
21.4,167,-23.4,-81.8
21.4,167,-21.8,-80.9
21.4,167,-20.3,-80.1
21.4,167,-18.7,-79.2
21.4,167,-17.2,-78.3
21.4,167,-15.6,-77.4
21.4,167,-14,-76.3
21.4,167,-12.5,-75.2
21.4,167,-10.9,-73.9
21.4,167,-9.3,-72.6
21.4,167,-7.7,-71
21.4,167,-6.1,-69.3
21.4,167,-4.7,-67.4
21.4,167,-3.3,-65.3
21.4,167,-2,-63.1
21.4,167,-0.9,-60.7
21.4,167,0.1,-58.1
21.5,167,1,-55.4
21.5,167,1.9,-52.6
21.5,167,2.7,-49.7
21.5,167,3.4,-46.7
21.5,167,4.1,-43.6
21.5,167,4.7,-40.5
21.5,167,5.3,-37.4
21.5,167,6,-34.3
21.5,167,6.8,-31.2
21.5,167,7.6,-28
21.5,167,8.6,-25
21.5,167,9.6,-22
21.5,167,10.7,-19.1
21.5,168,11.8,-16.3
21.5,168,12.9,-13.7
21.5,168,14.1,-11.2
21.5,168,15.2,-8.9
21.5,168,16.4,-6.8
21.5,168,17.5,-4.8
21.5,168,18.6,-3
21.5,168,19.6,-1.4
21.5,168,20.4,0.1
21.5,168,21.1,1.5
21.5,168,21.6,2.8
21.5,168,22,3.9
21.6,168,22.3,5
21.6,168,22.4,6.1
21.6,168,22.4,7.1
21.6,168,22.4,8.2
21.6,168,22.4,9.4
21.6,168,22.3,10.5
21.6,168,22.2,11.7
21.6,168,22,12.9
21.6,168,21.8,14.1
21.6,168,21.6,15.5
21.6,168,21.3,16.8
21.6,168,21.2,18.3
21.6,168,21.1,19.9
21.6,168,21.1,21.6
21.6,168,21.2,23.4
21.6,168,21.3,25.3
21.6,168,21.6,27.1
21.6,168,21.9,29
21.6,168,22.2,30.7
21.6,168,22.5,32.4
21.6,169,22.7,33.9
21.6,169,22.9,35.4
21.6,169,23,36.9
21.6,169,23.2,38.4
21.6,169,23.3,39.8
21.7,169,23.5,41.3
21.7,169,23.7,42.7
21.7,169,23.9,44
21.7,169,24.2,45.1
21.7,169,24.4,46.1
21.7,169,24.5,46.8
21.7,169,24.5,47.3
21.7,169,24.4,47.6
21.7,169,24.3,47.8
21.7,169,24.1,48
21.7,169,24,48.1
21.7,169,23.9,48.1
21.7,169,23.9,48.2
21.7,169,24.1,48.3
21.7,169,24.4,48.4
21.7,169,24.7,48.6
21.7,169,25.2,48.8
21.7,169,25.6,48.9
21.7,169,26,49
21.7,169,26.2,48.9
21.7,169,26.2,48.7
21.7,169,25.9,48.4
21.7,169,25.5,47.9
21.7,169,24.9,47.4
21.7,169,24.2,46.9
21.8,169,23.6,46.5
21.8,169,22.9,46.1
21.8,170,22.4,45.7
21.8,170,21.9,45.4
21.8,170,21.4,45.1
21.8,170,21.1,44.9
21.8,170,20.8,44.8
21.8,170,20.6,44.8
21.8,170,20.5,44.9
21.8,170,20.4,45
21.8,170,20.4,45.3
21.8,170,20.4,45.6
21.8,170,20.3,45.9
21.8,170,20.2,46.2
21.8,170,20,46.4
21.8,170,19.8,46.6
21.8,170,19.5,46.6
21.8,170,19.2,46.4
21.8,170,18.8,46
21.8,170,18.4,45.5
21.8,170,18.1,44.7
21.8,170,17.7,43.9
21.8,170,17.2,42.9
21.8,170,16.7,41.8
21.8,170,16.1,40.7
21.9,170,15.5,39.5
21.9,170,14.8,38.3
21.9,170,14.1,37.1
21.9,170,13.1,36
21.9,170,12.1,34.8
21.9,170,11,33.6
21.9,170,9.8,32.4
21.9,170,8.7,31.3
21.9,170,7.6,30.3
21.9,171,6.5,29.3
21.9,171,5.6,28.4
21.9,171,4.8,27.6
21.9,171,4.2,26.9
21.9,171,3.8,26.3
21.9,171,3.6,25.9
21.9,171,3.6,25.5
21.9,171,3.6,25.1
21.9,171,3.8,24.7
21.9,171,3.9,24.3
21.9,171,4.1,23.9
21.9,171,4.1,23.4
21.9,171,3.9,22.9
21.9,171,3.5,22.3
21.9,171,2.9,21.7
21.9,171,2.1,21.1
22,171,1.1,20.4
22,171,0,19.6
22,171,-1.3,18.7
22,171,-2.6,17.7
22,171,-3.8,16.6
22,171,-4.9,15.4
22,171,-5.9,14.1
22,171,-6.6,12.9
22,171,-7.1,11.5
22,171,-7.3,10.2
22,171,-7.4,8.8
22,171,-7.2,7.4
22,171,-7,6
22,171,-6.6,4.6
22,171,-6.1,3.3
22,171,-5.6,2
22,172,-5.1,0.9
22,172,-4.5,-0.1
22,172,-4,-1
22,172,-3.5,-1.7
22,172,-3.2,-2.2
22,172,-2.9,-2.6
22,172,-2.7,-2.8
22,172,-2.7,-3
22,172,-2.7,-3.1
22.1,172,-2.8,-3.1
22.1,172,-3,-3.1
22.1,172,-3.1,-3.2
22.1,172,-3.3,-3.2
22.1,172,-3.5,-3.4
22.1,172,-3.7,-3.5
22.1,172,-3.9,-3.7
22.1,172,-4.1,-4.1
22.1,172,-4.3,-4.5
22.1,172,-4.5,-5.1
22.1,172,-4.8,-5.7
22.1,172,-5.1,-6.4
22.1,172,-5.4,-7.1
22.1,172,-5.7,-7.8
22.1,172,-6.1,-8.6
22.1,172,-6.4,-9.3
22.1,172,-6.8,-10
22.1,172,-7.2,-10.7
22.1,172,-7.7,-11.3
22.1,172,-8.2,-11.8
22.1,172,-8.7,-12.3
22.1,172,-9.2,-12.7
22.1,172,-9.8,-13
22.1,173,-10.3,-13.4
22.1,173,-10.8,-13.7
22.2,173,-11.2,-14
22.2,173,-11.5,-14.3
22.2,173,-11.7,-14.6
22.2,173,-11.9,-14.9
22.2,173,-12,-15.3
22.2,173,-12,-15.8
22.2,173,-12.1,-16.4
22.2,173,-12.1,-17.1
22.2,173,-12,-17.8
22.2,173,-11.9,-18.4
22.2,173,-11.6,-19
22.2,173,-11.2,-19.5
22.2,173,-10.8,-20
22.2,173,-10.2,-20.5
22.2,173,-9.6,-20.9
22.2,173,-9,-21.3
22.2,173,-8.4,-21.7
22.2,173,-7.8,-21.9
22.2,173,-7.4,-22.1
22.2,173,-7.1,-22.1
22.2,173,-7,-22
22.2,173,-7.1,-21.8
22.2,173,-7.3,-21.5
22.2,173,-7.7,-21
22.2,173,-8.3,-20.4
22.3,173,-8.9,-19.7
22.3,173,-9.6,-18.9
22.3,173,-10.3,-18
22.3,173,-10.9,-16.9
22.3,173,-11.4,-15.7
22.3,174,-11.7,-14.5
22.3,174,-11.8,-13.3
22.3,174,-11.7,-12.2
22.3,174,-11.5,-11.2
22.3,174,-11.1,-10.4
22.3,174,-10.6,-9.8
22.3,174,-10,-9.4
22.3,174,-9.3,-9.1
22.3,174,-8.7,-9
22.3,174,-8.1,-9.1
22.3,174,-7.6,-9.3
22.3,174,-7.2,-9.6
22.3,174,-7,-10
22.3,174,-7,-10.4
22.3,174,-7,-10.9
22.3,174,-7.2,-11.3
22.3,174,-7.3,-11.7
22.3,174,-7.5,-12
22.3,174,-7.7,-12.2
22.3,174,-7.8,-12.2
22.4,174,-7.9,-12.1
22.4,174,-8,-11.8
22.4,174,-8,-11.5
22.4,174,-7.9,-11
22.4,174,-7.7,-10.6
22.4,174,-7.4,-10.1
22.4,174,-7,-9.7
22.4,174,-6.5,-9.4
22.4,174,-5.9,-9.1
22.4,174,-5.2,-8.8
22.4,174,-4.6,-8.5
22.4,174,-4,-8.3
22.4,175,-3.6,-8.2
22.4,175,-3.3,-8.1
22.4,175,-3.3,-8
22.4,175,-3.3,-8
22.4,175,-3.6,-8
22.4,175,-3.9,-8.1
22.4,175,-4.4,-8.3
22.4,175,-5,-8.5
22.4,175,-5.6,-8.7
22.4,175,-6.2,-8.9
22.4,175,-6.7,-9
22.4,175,-7,-8.9
22.4,175,-7.1,-8.8
22.5,175,-7.1,-8.7
22.5,175,-7,-8.4
22.5,175,-6.6,-8.2
22.5,175,-6.2,-8
22.5,175,-5.6,-7.9
22.5,175,-4.9,-7.7
22.5,175,-4.1,-7.6
22.5,175,-3.2,-7.4
22.5,175,-2.4,-7.3
22.5,175,-1.5,-7.2
22.5,175,-0.8,-7.1
22.5,175,-0.2,-7.1
22.5,175,0.3,-7
22.5,175,0.8,-7
22.5,175,1.1,-6.9
22.5,175,1.4,-6.7
22.5,175,1.7,-6.6
22.5,175,2,-6.4
22.5,175,2.2,-6.2
22.5,176,2.3,-6
22.5,176,2.3,-5.9
22.5,176,2.2,-5.8
22.5,176,2,-5.8
22.5,176,1.8,-5.7
22.5,176,1.5,-5.7
22.6,176,1.3,-5.6
22.6,176,1.1,-5.5
22.6,176,0.9,-5.4
22.6,176,0.8,-5.3
22.6,176,0.7,-5.1
22.6,176,0.6,-4.9
22.6,176,0.4,-4.7
22.6,176,0.2,-4.5
22.6,176,-0.1,-4.3
22.6,176,-0.5,-4.2
22.6,176,-0.8,-4.2
22.6,176,-1.2,-4.2
22.6,176,-1.5,-4.3
22.6,176,-1.8,-4.4
22.6,176,-2,-4.6
22.6,176,-2.2,-4.7
22.6,176,-2.5,-4.9
22.6,176,-2.7,-5
22.6,176,-3,-5.1
22.6,176,-3.4,-5.3
22.6,176,-3.8,-5.6
22.6,176,-4.2,-5.9
22.6,176,-4.6,-6.3
22.6,176,-4.8,-6.7
22.6,176,-4.8,-7
22.7,176,-4.7,-7.2
22.7,177,-4.4,-7.4
22.7,177,-3.9,-7.4
22.7,177,-3.3,-7.4
22.7,177,-2.6,-7.2
22.7,177,-1.9,-6.8
22.7,177,-1.2,-6.3
22.7,177,-0.6,-5.6
22.7,177,0,-4.7
22.7,177,0.5,-3.7
22.7,177,0.9,-2.6
22.7,177,1.4,-1.4
22.7,177,1.8,-0.3
22.7,177,2.2,0.7
22.7,177,2.5,1.6
22.7,177,2.9,2.3
22.7,177,3.3,2.9
22.7,177,3.8,3.4
22.7,177,4.3,3.8
22.7,177,4.9,4.1
22.7,177,5.5,4.2
22.7,177,6,4.1
22.7,177,6.4,3.9
22.7,177,6.7,3.5
22.7,177,6.8,3
22.8,177,6.8,2.4
22.8,177,6.6,1.7
22.8,177,6.2,1
22.8,177,5.9,0.5
22.8,177,5.4,-0.1
22.8,177,5,-0.4
22.8,177,4.6,-0.7
22.8,177,4.3,-0.8
22.8,178,4.1,-0.8
22.8,178,3.9,-0.8
22.8,178,3.9,-0.6
22.8,178,3.9,-0.4
22.8,178,3.8,-0.1
22.8,178,3.8,0.2
22.8,178,3.7,0.7
22.8,178,3.5,1.2
22.8,178,3.2,1.8
22.8,178,2.9,2.5
22.8,178,2.6,3.1
22.8,178,2.3,3.7
22.8,178,1.9,4.2
22.8,178,1.6,4.6
22.8,178,1.3,4.9
22.8,178,0.9,5.1
22.8,178,0.6,5.2
22.9,178,0.3,5.1
22.9,178,0,4.9
22.9,178,-0.4,4.6
22.9,178,-0.8,4.2
22.9,178,-1.2,3.8
22.9,178,-1.6,3.3
22.9,178,-1.9,2.9
22.9,178,-2.2,2.5
22.9,178,-2.5,2.2
22.9,178,-2.7,1.8
22.9,178,-2.8,1.5
22.9,178,-2.9,1.2
22.9,178,-2.8,0.9
22.9,178,-2.6,0.6
22.9,178,-2.2,0.3
22.9,179,-1.8,0
22.9,179,-1.2,-0.3
22.9,179,-0.6,-0.6
22.9,179,0,-1
22.9,179,0.5,-1.4
22.9,179,1,-1.7
22.9,179,1.4,-2.1
22.9,179,1.8,-2.4
22.9,179,2,-2.6
22.9,179,2.2,-2.8
23,179,2.3,-2.9
23,179,2.4,-2.9
23,179,2.5,-2.8
23,179,2.6,-2.7
23,179,2.6,-2.6
23,179,2.6,-2.5
23,179,2.5,-2.4
23,179,2.4,-2.4
23,179,2.3,-2.3
23,179,2.1,-2.2
23,179,2,-2
23,179,1.9,-1.7
23,179,1.8,-1.4
23,179,1.7,-0.9
23,179,1.4,-0.5
23,179,1.1,0
23,179,0.6,0.5
23,179,-0.1,0.9
23,179,-0.9,1.2
23,179,-1.8,1.4
23,179,-2.8,1.5
23,179,-3.8,1.3
23,180,-4.8,0.9
23,180,-5.7,0.4
23,180,-6.6,-0.3
23.1,180,-7.4,-1
23.1,180,-8.1,-1.9
23.1,180,-8.6,-2.7
23.1,180,-9,-3.5
23.1,180,-9.2,-4.1
23.1,180,-9.3,-4.7
23.1,180,-9.3,-5.1
23.1,180,-9.1,-5.3
23.1,180,-8.8,-5.5
23.1,180,-8.3,-5.4
23.1,180,-7.7,-5.3
23.1,180,-6.9,-5.1
23.1,180,-5.9,-4.8
23.1,180,-4.9,-4.4
23.1,180,-3.8,-4
23.1,180,-2.8,-3.7
23.1,180,-1.9,-3.3
23.1,180,-1,-3
23.1,180,-0.3,-2.6
23.1,180,0.3,-2.3
23.1,180,0.7,-2
23.1,180,1,-1.7
23.1,180,1.1,-1.3
23.1,180,1.2,-0.8
23.1,180,1.1,-0.2
23.2,180,1.1,0.5
23.2,180,1.1,1.3
23.2,180,1.1,2.2
23.2,180,1.3,3.2
23.2,181,1.5,4.2
23.2,181,1.9,5.3
23.2,181,2.4,6.2
23.2,181,2.9,7.1
23.2,181,3.6,7.8
23.2,181,4.3,8.4
23.2,181,5,8.8
23.2,181,5.7,9.1
23.2,181,6.4,9.1
23.2,181,7,9
23.2,181,7.5,8.8
23.2,181,7.9,8.4
23.2,181,8.1,7.9
23.2,181,8.2,7.2
23.2,181,8.1,6.4
23.2,181,7.9,5.6
23.2,181,7.6,4.7
23.2,181,7.2,3.8
23.2,181,6.7,3
23.2,181,6.2,2.1
23.2,181,5.5,1.4
23.3,181,4.8,0.7
23.3,181,4,0.2
23.3,181,3.3,-0.3
23.3,181,2.5,-0.5
23.3,181,1.9,-0.6
23.3,181,1.3,-0.5
23.3,181,0.7,-0.3
23.3,181,0.3,0
23.3,181,-0.2,0.3
23.3,181,-0.6,0.7
23.3,181,-1,1
23.3,182,-1.3,1.3
23.3,182,-1.5,1.5
23.3,182,-1.7,1.6
23.3,182,-1.8,1.6
23.3,182,-1.8,1.6
23.3,182,-1.8,1.5
23.3,182,-1.7,1.3
23.3,182,-1.7,1.1
23.3,182,-1.6,0.9
23.3,182,-1.5,0.7
23.3,182,-1.5,0.4
23.3,182,-1.4,0.2
23.3,182,-1.3,0.1
23.3,182,-1.3,0
23.4,182,-1.3,-0.1
23.4,182,-1.3,0
23.4,182,-1.4,0.1
23.4,182,-1.5,0.2
23.4,182,-1.7,0.3
23.4,182,-1.9,0.4
23.4,182,-2.1,0.5
23.4,182,-2.3,0.4
23.4,182,-2.6,0.3
23.4,182,-2.8,0.1
23.4,182,-3.1,-0.3
23.4,182,-3.4,-0.7
23.4,182,-3.8,-1.2
23.4,182,-4.1,-1.8
23.4,182,-4.4,-2.4
23.4,182,-4.8,-3
23.4,182,-5,-3.4
23.4,182,-5.2,-3.8
23.4,183,-5.3,-4
23.4,183,-5.3,-4.1
23.4,183,-5.2,-4
23.4,183,-4.9,-3.7
23.4,183,-4.4,-3.4
23.4,183,-3.8,-3
23.4,183,-3.2,-2.6
23.5,183,-2.6,-2.1
23.5,183,-1.9,-1.7
23.5,183,-1.2,-1.3
23.5,183,-0.6,-0.8
23.5,183,-0.1,-0.4
23.5,183,0.4,0
23.5,183,0.8,0.3
23.5,183,1,0.4
23.5,183,1,0.6
23.5,183,0.9,0.6
23.5,183,0.5,0.6
23.5,183,-0.1,0.6
23.5,183,-0.9,0.5
23.5,183,-2,0.2
23.5,183,-3.3,-0.1
23.5,183,-4.7,-0.6
23.5,183,-6.1,-1
23.5,183,-7.4,-1.4
23.5,183,-8.4,-1.8
23.5,183,-9.1,-2
23.5,183,-9.6,-2.1
23.5,183,-9.7,-2.1
23.5,183,-9.5,-2.1
23.5,183,-8.9,-2
23.5,183,-8.2,-1.8
23.6,184,-7.2,-1.8
23.6,184,-6,-1.7
23.6,184,-4.7,-1.7
23.6,184,-3.2,-1.7
23.6,184,-1.7,-1.8
23.6,184,-0.1,-1.9
23.6,184,1.5,-2
23.6,184,3.1,-2.1
23.6,184,4.6,-2.2
23.6,184,6.1,-2.3
23.6,184,7.3,-2.4
23.6,184,8.4,-2.5
23.6,184,9.4,-2.6
23.6,184,10.1,-2.6
23.6,184,10.6,-2.6
23.6,184,10.9,-2.4
23.6,184,10.9,-2.3
23.6,184,10.8,-2
23.6,184,10.5,-1.7
23.6,184,10.1,-1.4
23.6,184,9.7,-1
23.6,184,9.3,-0.7
23.6,184,9,-0.3
23.6,184,8.9,0
23.6,184,8.8,0.3
23.7,184,8.9,0.6
23.7,184,9.1,0.8
23.7,184,9.3,1.1
23.7,184,9.6,1.4
23.7,184,10,1.7
23.7,184,10.3,2
23.7,184,10.5,2.3
23.7,185,10.6,2.6
23.7,185,10.6,2.8
23.7,185,10.4,3.1
23.7,185,10.1,3.4
23.7,185,9.7,3.7
23.7,185,9.2,4
23.7,185,8.7,4.4
23.7,185,8.2,4.7
23.7,185,7.6,5
23.7,185,7,5.2
23.7,185,6.2,5.2
23.7,185,5.4,5.2
23.7,185,4.4,5
23.7,185,3.3,4.6
23.7,185,2.1,4.2
23.7,185,0.7,3.7
23.7,185,-0.8,3.1
23.7,185,-2.2,2.5
23.8,185,-3.7,1.9
23.8,185,-5.1,1.3
23.8,185,-6.4,0.9
23.8,185,-7.5,0.5
23.8,185,-8.4,0.1
23.8,185,-9,-0.1
23.8,185,-9.2,-0.2
23.8,185,-9.2,-0.2
23.8,185,-8.9,-0.1
23.8,185,-8.3,0
23.8,185,-7.4,0.3
23.8,185,-6.4,0.5
23.8,185,-5.3,0.7
23.8,185,-4.1,0.9
23.8,186,-2.9,1
23.8,186,-1.7,1
23.8,186,-0.6,0.9
23.8,186,0.4,0.9
23.8,186,1.4,0.8
23.8,186,2.3,0.8
23.8,186,3,0.7
23.8,186,3.6,0.6
23.8,186,4.1,0.5
23.8,186,4.4,0.3
23.8,186,4.6,0.1
23.9,186,4.6,-0.1
23.9,186,4.5,-0.4
23.9,186,4.2,-0.7
23.9,186,3.8,-1
23.9,186,3.3,-1.4
23.9,186,2.7,-1.7
23.9,186,2.2,-2
23.9,186,1.8,-2.3
23.9,186,1.5,-2.4
23.9,186,1.3,-2.5
23.9,186,1.1,-2.5
23.9,186,1,-2.5
23.9,186,0.9,-2.3
23.9,186,0.7,-2.1
23.9,186,0.5,-1.9
23.9,186,0.1,-1.7
23.9,186,-0.4,-1.5
23.9,186,-0.9,-1.3
23.9,186,-1.6,-1.1
23.9,186,-2.3,-1.1
23.9,186,-3.1,-1
23.9,187,-3.9,-1
23.9,187,-4.6,-1.1
23.9,187,-5.3,-1.1
23.9,187,-5.9,-1.2
24,187,-6.4,-1.2
24,187,-6.6,-1.1
24,187,-6.6,-0.9
24,187,-6.4,-0.6
24,187,-6,-0.3
24,187,-5.5,0
24,187,-4.8,0.3
24,187,-4.1,0.7
24,187,-3.3,1
24,187,-2.6,1.4
24,187,-1.9,1.6
24,187,-1.3,1.8
24,187,-0.8,1.9
24,187,-0.5,1.9
24,187,-0.5,1.7
24,187,-0.6,1.4
24,187,-0.9,1
24,187,-1.4,0.4
24,187,-2,-0.1
24,187,-2.7,-0.7
24,187,-3.3,-1.3
24,187,-3.9,-1.8
24,187,-4.3,-2.3
24,187,-4.5,-2.7
24,187,-4.6,-3.1
24.1,187,-4.4,-3.4
24.1,187,-4.1,-3.6
24.1,187,-3.7,-3.7
24.1,188,-3.2,-3.8
24.1,188,-2.7,-3.8
24.1,188,-2.2,-3.7
24.1,188,-1.8,-3.6
24.1,188,-1.4,-3.4
24.1,188,-1,-3.2
24.1,188,-0.7,-2.9
24.1,188,-0.3,-2.6
24.1,188,-0.1,-2.3
24.1,188,0.1,-2.1
24.1,188,0.1,-1.9
24.1,188,0.1,-1.7
24.1,188,-0.1,-1.4
24.1,188,-0.3,-1.2
24.1,188,-0.6,-0.9
24.1,188,-0.8,-0.6
24.1,188,-1.1,-0.4
24.1,188,-1.3,-0.1
24.1,188,-1.5,0.1
24.1,188,-1.5,0.3
24.1,188,-1.5,0.4
24.1,188,-1.4,0.4
24.2,188,-1.2,0.3
24.2,188,-0.9,0.1
24.2,188,-0.6,-0.1
24.2,188,-0.3,-0.3
24.2,188,-0.1,-0.6
24.2,188,0.1,-0.8
24.2,188,0.2,-0.9
24.2,188,0.2,-0.9
24.2,188,0.1,-0.8
24.2,188,-0.1,-0.6
24.2,189,-0.2,-0.2
24.2,189,-0.4,0.1
24.2,189,-0.6,0.5
24.2,189,-0.7,1
24.2,189,-0.8,1.3
24.2,189,-0.9,1.7
24.2,189,-0.9,2
24.2,189,-0.9,2.3
24.2,189,-0.9,2.5
24.2,189,-0.7,2.8
24.2,189,-0.6,3.1
24.2,189,-0.4,3.4
24.2,189,-0.2,3.7
24.2,189,-0.1,3.9
24.2,189,0,4.1
24.3,189,0,4.2
24.3,189,-0.1,4.3
24.3,189,-0.3,4.4
24.3,189,-0.5,4.4
24.3,189,-0.8,4.4
24.3,189,-1.3,4.3
24.3,189,-1.8,4.2
24.3,189,-2.4,4
24.3,189,-3,3.8
24.3,189,-3.7,3.6
24.3,189,-4.2,3.4
24.3,189,-4.7,3.2
24.3,189,-5,3.2
24.3,189,-5.1,3.2
24.3,189,-5.1,3.2
24.3,189,-4.8,3.3
24.3,189,-4.5,3.3
24.3,190,-4.1,3.2
24.3,190,-3.7,3.2
24.3,190,-3.3,3.1
24.3,190,-3.1,2.9
24.3,190,-3,2.6
24.3,190,-3.2,2.2
24.3,190,-3.4,1.7
24.3,190,-3.8,1.1
24.4,190,-4.1,0.5
24.4,190,-4.3,-0.1
24.4,190,-4.4,-0.7
24.4,190,-4.4,-1.1
24.4,190,-4.4,-1.4
24.4,190,-4.2,-1.7
24.4,190,-4,-1.8
24.4,190,-3.9,-1.7
24.4,190,-3.7,-1.6
24.4,190,-3.6,-1.4
24.4,190,-3.6,-1.2
24.4,190,-3.7,-0.9
24.4,190,-3.8,-0.5
24.4,190,-3.9,-0.2
24.4,190,-3.9,0.2
24.4,190,-3.8,0.6
24.4,190,-3.5,1
24.4,190,-3.1,1.5
24.4,190,-2.3,2
24.4,190,-1.4,2.6
24.4,190,-0.4,3.3
24.4,190,0.7,4.1
24.4,190,1.9,4.9
24.4,190,3,5.7
24.4,191,4,6.5
24.5,191,5,7.2
24.5,191,5.7,7.8
24.5,191,6.3,8.3
24.5,191,6.7,8.6
24.5,191,6.9,8.8
24.5,191,6.9,8.9
24.5,191,6.8,8.8
24.5,191,6.6,8.5
24.5,191,6.4,8.2
24.5,191,6.2,7.7
24.5,191,6,7.2
24.5,191,5.7,6.6
24.5,191,5.5,6
24.5,191,5.4,5.3
24.5,191,5.3,4.6
24.5,191,5.2,4
24.5,191,5.4,3.5
24.5,191,5.7,3.1
24.5,191,6.2,2.8
24.5,191,7,2.7
24.5,191,7.9,2.6
24.5,191,9,2.7
24.5,191,10.1,2.8
24.5,191,11.2,2.9
24.5,191,12.1,3.1
24.6,191,12.9,3.2
24.6,191,13.5,3.4
24.6,191,13.8,3.6
24.6,191,13.9,3.7
24.6,191,13.7,3.8
24.6,191,13.3,3.9
24.6,192,12.6,4
24.6,192,11.6,3.9
24.6,192,10.5,3.8
24.6,192,9.2,3.6
24.6,192,7.8,3.2
24.6,192,6.3,2.9
24.6,192,4.9,2.4
24.6,192,3.6,2
24.6,192,2.5,1.6
24.6,192,1.6,1.3
24.6,192,1,1
24.6,192,0.7,0.9
24.6,192,0.7,0.8
24.6,192,0.9,0.9
24.6,192,1.2,1
24.6,192,1.5,1.2
24.6,192,1.9,1.4
24.6,192,2.2,1.5
24.6,192,2.4,1.6
24.7,192,2.6,1.6
24.7,192,2.7,1.4
24.7,192,2.7,1.1
24.7,192,2.5,0.6
24.7,192,2.3,-0.1
24.7,192,2,-1
24.7,192,1.6,-2
24.7,192,1,-3
24.7,192,0.4,-4.1
24.7,192,-0.3,-5.2
24.7,192,-1,-6.3
24.7,192,-1.7,-7.2
24.7,192,-2.2,-8
24.7,193,-2.6,-8.7
24.7,193,-2.7,-9.1
24.7,193,-2.6,-9.4
24.7,193,-2.3,-9.5
24.7,193,-1.8,-9.4
24.7,193,-1.3,-9.2
24.7,193,-0.7,-8.8
24.7,193,-0.2,-8.4
24.7,193,0.3,-8
24.7,193,0.6,-7.5
24.7,193,0.9,-7.1
24.7,193,1.1,-6.7
24.8,193,1.2,-6.3
24.8,193,1.2,-5.9
24.8,193,1.1,-5.5
24.8,193,1,-5
24.8,193,0.7,-4.5
24.8,193,0.3,-4.1
24.8,193,-0.1,-3.7
24.8,193,-0.5,-3.3
24.8,193,-0.8,-3
24.8,193,-1.1,-2.7
24.8,193,-1.3,-2.4
24.8,193,-1.2,-2.1
24.8,193,-0.9,-1.7
24.8,193,-0.3,-1.4
24.8,193,0.4,-1
24.8,193,1.3,-0.6
24.8,193,2.3,-0.2
24.8,193,3.3,0.2
24.8,193,4.1,0.5
24.8,193,4.8,0.7
24.8,194,5.1,0.8
24.8,194,5.2,0.7
24.8,194,5.1,0.6
24.8,194,4.8,0.4
24.8,194,4.2,0
24.9,194,3.5,-0.5
24.9,194,2.6,-1.1
24.9,194,1.5,-1.9
24.9,194,0.2,-3
24.9,194,-1.2,-4.4
24.9,194,-2.6,-6.3
24.9,194,-4.1,-8.8
24.9,194,-5.4,-12.2
24.9,194,-6.7,-16.4
24.9,194,-7.7,-21.7
24.9,194,-8.7,-28.1
24.9,194,-9.5,-35.6
24.9,194,-10.3,-44.3
24.9,194,-11,-54.1
24.9,194,-11.6,-64.8
24.9,194,-12.3,-76.3
24.9,194,-13.2,-88.5
24.9,194,-14.6,-101.3
24.9,194,-16.5,-114.6
24.9,194,-18.9,-128.2
24.9,194,-21.9,-142.1
24.9,194,-25.4,-155.7
24.9,194,-29.3,-168.9
24.9,194,-33.5,-181.1
24.9,194,-38,-192.2
25,194,-42.6,-201.8
25,194,-47.3,-209.6
25,195,-51.8,-215.4
25,195,-56.1,-219
25,195,-60,-220.4
25,195,-63.5,-219.4
25,195,-66.5,-216.2
25,195,-69,-210.8
25,195,-70.9,-203.2
25,195,-72.3,-193.8
25,195,-73.2,-182.8
25,195,-73.5,-170.5
25,195,-73.4,-157.2
25,195,-72.7,-143.3
25,195,-71.6,-128.8
25,195,-70.1,-113.9
25,195,-68.2,-98.8
25,195,-66,-83.6
25,195,-63.4,-68.3
25,195,-60.5,-53
25,195,-57.3,-37.8
25,195,-53.8,-22.5
25,195,-50.1,-7.4
25,195,-46.2,7.5
25,195,-42.2,22.1
25.1,195,-38,36.2
25.1,195,-33.7,49.6
25.1,195,-29.4,62.3
25.1,195,-25.2,74.4
25.1,195,-21,85.9
25.1,195,-16.8,96.8
25.1,195,-12.6,107.1
25.1,195,-8.5,116.8
25.1,195,-4.4,125.9
25.1,196,-0.3,134.5
25.1,196,3.6,142.5
25.1,196,7.5,150
25.1,196,11.2,156.9
25.1,196,14.8,163.3
25.1,196,18.3,169.2
25.1,196,21.7,174.7
25.1,196,25.1,179.7
25.1,196,28.3,184.4
25.1,196,31.5,188.6
25.1,196,34.5,192.3
25.1,196,37.4,195.7
25.1,196,40.1,198.7
25.1,196,42.7,201.4
25.1,196,45.1,203.7
25.1,196,47.2,205.6
25.2,196,49.2,207
25.2,196,51,208.1
25.2,196,52.7,208.8
25.2,196,54.4,209.1
25.2,196,56,209
25.2,196,57.6,208.6
25.2,196,59.2,207.9
25.2,196,60.9,207
25.2,196,62.6,205.9
25.2,196,64.3,204.6
25.2,196,66,203.2
25.2,196,67.7,201.8
25.2,196,69.2,200.2
25.2,196,70.6,198.4
25.2,196,71.8,196.5
25.2,196,72.8,194.5
25.2,197,73.7,192.2
25.2,197,74.4,189.9
25.2,197,75.1,187.6
25.2,197,75.7,185.4
25.2,197,76.4,183
25.2,197,77,180.5
25.2,197,77.7,177.9
25.2,197,78.2,174.9
25.2,197,78.7,171.7
25.3,197,79.2,168.2
25.3,197,79.6,164.5
25.3,197,79.9,160.4
25.3,197,80.3,156.1
25.3,197,80.5,151.6
25.3,197,80.7,147
25.3,197,80.7,142.1
25.3,197,80.7,137.1
25.3,197,80.6,131.9
25.3,197,80.4,126.6
25.3,197,80.1,121.1
25.3,197,79.6,115.6
25.3,197,79,110
25.3,197,78.3,104.4
25.3,197,77.3,98.8
25.3,197,76,93.2
25.3,197,74.5,87.6
25.3,197,72.8,82
25.3,197,70.9,76.4
25.3,197,68.9,70.8
25.3,197,66.8,65.2
25.3,197,64.6,59.7
25.3,197,62.4,54.1
25.3,198,60.1,48.5
25.3,198,57.9,43
25.4,198,55.7,37.4
25.4,198,53.5,31.9
25.4,198,51.4,26.4
25.4,198,49.4,21
25.4,198,47.6,15.6
25.4,198,45.9,10.3
25.4,198,44.3,5.2
25.4,198,42.7,0.2
25.4,198,41.2,-4.8
25.4,198,39.6,-9.6
25.4,198,37.9,-14.4
25.4,198,36,-19.3
25.4,198,33.9,-24.3
25.4,198,31.6,-29.4
25.4,198,29,-34.5
25.4,198,26.1,-39.7
25.4,198,23,-44.9
25.4,198,19.7,-50
25.4,198,16.2,-55.1
25.4,198,12.7,-60.1
25.4,198,9,-64.9
25.4,198,5.4,-69.7
25.4,198,1.9,-74.4
25.4,198,-1.5,-78.9
25.4,198,-4.7,-83.1
25.5,198,-7.6,-87.2
25.5,198,-10.3,-91
25.5,198,-12.7,-94.5
25.5,198,-14.9,-97.7
25.5,198,-16.9,-100.8
25.5,199,-18.8,-103.6
25.5,199,-20.5,-106.2
25.5,199,-22,-108.7
25.5,199,-23.4,-111
25.5,199,-24.7,-113
25.5,199,-25.9,-114.9
25.5,199,-26.9,-116.6
25.5,199,-27.9,-118.1
25.5,199,-28.9,-119.6
25.5,199,-29.8,-120.9
25.5,199,-30.6,-122.1
25.5,199,-31.4,-123.2
25.5,199,-32.1,-124.1
25.5,199,-32.9,-124.9
25.5,199,-33.6,-125.4
25.5,199,-34.4,-125.8
25.5,199,-35.2,-125.9
25.5,199,-36,-126
25.5,199,-36.8,-126
25.5,199,-37.7,-126.1
25.6,199,-38.6,-126.1
25.6,199,-39.7,-126.2
25.6,199,-40.8,-126.4
25.6,199,-42,-126.6
25.6,199,-43.2,-126.8
25.6,199,-44.4,-127.1
25.6,199,-45.6,-127.3
25.6,199,-46.8,-127.6
25.6,199,-47.8,-127.8
25.6,199,-48.8,-128
25.6,199,-49.8,-128.2
25.6,199,-50.7,-128.1
25.6,200,-51.6,-127.8
25.6,200,-52.3,-127.2
25.6,200,-53,-126.4
25.6,200,-53.5,-125.3
25.6,200,-54,-124
25.6,200,-54.4,-122.4
25.6,200,-54.7,-120.7
25.6,200,-55,-118.8
25.6,200,-55.3,-116.9
25.6,200,-55.6,-114.9
25.6,200,-56,-113
25.6,200,-56.3,-111.1
25.6,200,-56.6,-109.4
25.7,200,-56.9,-107.8
25.7,200,-57.3,-106.4
25.7,200,-57.5,-105
25.7,200,-57.7,-103.7
25.7,200,-57.8,-102.3
25.7,200,-57.7,-100.8
25.7,200,-57.6,-99.2
25.7,200,-57.3,-97.6
25.7,200,-56.8,-95.9
25.7,200,-56.1,-94.1
25.7,200,-55.3,-92.4
25.7,200,-54.2,-90.7
25.7,200,-52.8,-89
25.7,200,-51.4,-87.3
25.7,200,-49.7,-85.5
25.7,200,-48.1,-83.7
25.7,200,-46.5,-81.8
25.7,200,-45,-79.9
25.7,200,-43.7,-77.9
25.7,201,-42.6,-75.8
25.7,201,-41.8,-73.8
25.7,201,-41.2,-71.8
25.7,201,-40.8,-69.7
25.7,201,-40.6,-67.5
25.7,201,-40.5,-65.3
25.8,201,-40.5,-62.9
25.8,201,-40.5,-60.5
25.8,201,-40.5,-58
25.8,201,-40.4,-55.5
25.8,201,-40.2,-53
25.8,201,-39.9,-50.5
25.8,201,-39.5,-48.1
25.8,201,-39,-45.6
25.8,201,-38.4,-43.3
25.8,201,-37.7,-41.1
25.8,201,-37,-38.9
25.8,201,-36.4,-36.8
25.8,201,-35.7,-34.7
25.8,201,-35,-32.6
25.8,201,-34.3,-30.5
25.8,201,-33.6,-28.4
25.8,201,-32.8,-26.3
25.8,201,-32,-24.2
25.8,201,-31.2,-22
25.8,201,-30.3,-19.9
25.8,201,-29.4,-17.8
25.8,201,-28.4,-15.7
25.8,201,-27.3,-13.7
25.8,201,-26,-11.6
25.8,201,-24.7,-9.6
25.9,201,-23.2,-7.4
25.9,202,-21.6,-5.3
25.9,202,-20,-3.2
25.9,202,-18.3,-1.2
25.9,202,-16.6,0.8
25.9,202,-15.1,2.7
25.9,202,-13.6,4.5
25.9,202,-12.4,6.3
25.9,202,-11.3,8
25.9,202,-10.4,9.6
25.9,202,-9.7,11.1
25.9,202,-9,12.5
25.9,202,-8.5,13.9
25.9,202,-8.2,15.2
25.9,202,-8,16.4
25.9,202,-7.9,17.6
25.9,202,-7.9,18.8
25.9,202,-8,19.8
25.9,202,-8.1,20.9
25.9,202,-8.2,21.9
25.9,202,-8.1,22.9
25.9,202,-7.9,24
25.9,202,-7.4,25.1
25.9,202,-6.8,26.2
25.9,202,-5.9,27.4
26,202,-4.8,28.6
26,202,-3.6,29.8
26,202,-2.3,30.9
26,202,-1,32
26,202,0.4,32.9
26,202,1.7,33.8
26,202,3,34.7
26,202,4.2,35.4
26,203,5.3,36.2
26,203,6.3,37
26,203,7.1,37.8
26,203,7.9,38.7
26,203,8.6,39.5
26,203,9.3,40.4
26,203,9.8,41.2
26,203,10.3,42.1
26,203,10.6,42.9
26,203,10.8,43.6
26,203,10.9,44.3
26,203,11.1,44.8
26,203,11.2,45.2
26,203,11.5,45.5
26,203,11.9,45.6
26,203,12.3,45.6
26,203,12.8,45.5
26.1,203,13.4,45.3
26.1,203,14,45
26.1,203,14.5,44.6
26.1,203,14.9,44.2
26.1,203,15,43.7
26.1,203,15,42.9
26.1,203,14.7,42.1
26.1,203,14.2,41.1
26.1,203,13.6,40
26.1,203,12.9,39
26.1,203,12.3,38.1
26.1,203,11.8,37.3
26.1,203,11.6,36.8
26.1,203,11.5,36.5
26.1,203,11.6,36.4
26.1,204,12,36.5
26.1,204,12.5,36.9
26.1,204,13.1,37.4
26.1,204,13.7,38.1
26.1,204,14.3,38.7
26.1,204,14.8,39.3
26.1,204,15.2,39.8
26.1,204,15.6,40.2
26.1,204,16,40.6
26.1,204,16.3,40.8
26.2,204,16.6,41
26.2,204,17,41.2
26.2,204,17.4,41.2
26.2,204,17.9,41.2
26.2,204,18.4,41.2
26.2,204,19,41.2
26.2,204,19.5,41.1
26.2,204,20,41
26.2,204,20.4,40.8
26.2,204,20.6,40.5
26.2,204,20.7,40.2
26.2,204,20.7,39.8
26.2,204,20.6,39.4
26.2,204,20.3,38.9
26.2,204,20.1,38.3
26.2,204,19.8,37.6
26.2,204,19.6,36.8
26.2,204,19.4,36
26.2,204,19.3,35.2
26.2,204,19.2,34.2
26.2,204,19.2,33.3
26.2,204,19.1,32.2
26.2,205,19,31.2
26.2,205,19,30.1
26.2,205,18.9,29.2
26.3,205,18.9,28.3
26.3,205,18.8,27.6
26.3,205,18.7,26.9
26.3,205,18.6,26.2
26.3,205,18.4,25.6
26.3,205,18.1,25.1
26.3,205,17.7,24.6
26.3,205,17.3,24.1
26.3,205,16.7,23.7
26.3,205,16,23.3
26.3,205,15.3,22.9
26.3,205,14.6,22.5
26.3,205,13.8,22
26.3,205,13,21.5
26.3,205,12.3,20.9
26.3,205,11.5,20.4
26.3,205,10.8,19.7
26.3,205,10.1,19
26.3,205,9.4,18.2
26.3,205,8.6,17.4
26.3,205,7.9,16.6
26.3,205,7.2,15.6
26.3,205,6.5,14.7
26.3,205,5.9,13.7
26.3,205,5.5,12.8
26.4,205,5.2,11.9
26.4,205,5,11.1
26.4,205,5,10.4
26.4,205,5,9.6
26.4,206,5.2,8.9
26.4,206,5.4,8.2
26.4,206,5.7,7.4
26.4,206,6,6.6
26.4,206,6.2,5.6
26.4,206,6.4,4.6
26.4,206,6.5,3.5
26.4,206,6.4,2.4
26.4,206,6.3,1.4
26.4,206,6,0.4
26.4,206,5.7,-0.5
26.4,206,5.4,-1.3
26.4,206,4.9,-1.9
26.4,206,4.5,-2.6
26.4,206,4.2,-3.2
26.4,206,3.8,-3.8
26.4,206,3.6,-4.4
26.4,206,3.3,-4.9
26.4,206,3.1,-5.4
26.4,206,3,-5.8
26.4,206,2.9,-6.2
26.5,206,3,-6.4
26.5,206,3.2,-6.6
26.5,206,3.5,-6.7
26.5,206,4,-6.8
26.5,206,4.4,-6.8
26.5,206,4.9,-6.8
26.5,206,5.3,-6.8
26.5,206,5.6,-6.8
26.5,206,5.8,-6.8
26.5,206,5.9,-6.7
26.5,206,5.9,-6.7
26.5,207,5.7,-6.6
26.5,207,5.4,-6.5
26.5,207,5,-6.5
26.5,207,4.6,-6.5
26.5,207,4,-6.5
26.5,207,3.4,-6.6
26.5,207,2.9,-6.6
26.5,207,2.4,-6.6
26.5,207,2,-6.5
26.5,207,1.8,-6.3
26.5,207,1.7,-6
26.5,207,1.6,-5.7
26.5,207,1.6,-5.4
26.5,207,1.6,-5.1
26.6,207,1.6,-4.7
26.6,207,1.5,-4.2
26.6,207,1.5,-3.7
26.6,207,1.6,-3.2
26.6,207,1.7,-2.8
26.6,207,1.8,-2.5
26.6,207,1.9,-2.4
26.6,207,2,-2.4
26.6,207,2,-2.4
26.6,207,1.9,-2.4
26.6,207,1.7,-2.3
26.6,207,1.4,-2.1
26.6,207,1.1,-1.7
26.6,207,0.8,-1.3
26.6,207,0.4,-0.8
26.6,207,0.1,-0.4
26.6,207,-0.1,-0.1
26.6,207,-0.4,0.1
26.6,208,-0.7,0.2
26.6,208,-1,0.2
26.6,208,-1.3,0.2
26.6,208,-1.6,0.2
26.6,208,-1.9,0
26.6,208,-2.2,-0.3
26.6,208,-2.5,-0.7
26.7,208,-2.7,-1.2
26.7,208,-2.9,-1.8
26.7,208,-3,-2.4
26.7,208,-3.1,-3
26.7,208,-3.1,-3.5
26.7,208,-3.1,-3.9
26.7,208,-3.1,-4.2
26.7,208,-3.1,-4.3
26.7,208,-3.1,-4.4
26.7,208,-2.9,-4.4
26.7,208,-2.6,-4.3
26.7,208,-2.2,-4.1
26.7,208,-1.7,-3.8
26.7,208,-1.1,-3.4
26.7,208,-0.3,-2.8
26.7,208,0.4,-2.2
26.7,208,1.1,-1.6
26.7,208,1.8,-1
26.7,208,2.3,-0.5
26.7,208,2.8,-0.1
26.7,208,3.1,0.3
26.7,208,3.4,0.6
26.7,208,3.5,0.8
26.7,208,3.5,1
26.7,208,3.4,1.1
26.8,209,3.2,1.2
26.8,209,2.8,1.2
26.8,209,2.4,1.2
26.8,209,1.8,1.3
26.8,209,1.1,1.2
26.8,209,0.5,1.1
26.8,209,-0.2,0.9
26.8,209,-0.7,0.5
26.8,209,-1.1,0
26.8,209,-1.4,-0.6
26.8,209,-1.7,-1.2
26.8,209,-1.8,-1.7
26.8,209,-1.9,-2.3
26.8,209,-2.1,-2.7
26.8,209,-2.2,-3.1
26.8,209,-2.3,-3.5
26.8,209,-2.4,-3.8
26.8,209,-2.4,-4.2
26.8,209,-2.4,-4.5
26.8,209,-2.4,-4.9
26.8,209,-2.3,-5.3
26.8,209,-2.2,-5.7
26.8,209,-2,-6.1
26.8,209,-1.8,-6.4
26.8,209,-1.5,-6.4
26.9,209,-1.1,-6.3
26.9,209,-0.7,-5.9
26.9,209,-0.2,-5.3
26.9,209,0.4,-4.4
26.9,209,1.1,-3.5
26.9,209,1.8,-2.4
26.9,209,2.5,-1.3
26.9,210,3.2,-0.2
26.9,210,3.8,0.7
26.9,210,4.4,1.4
26.9,210,4.9,1.9
26.9,210,5.2,2.1
26.9,210,5.4,2.1
26.9,210,5.6,1.9
26.9,210,5.6,1.4
26.9,210,5.5,0.8
26.9,210,5.3,-0.1
26.9,210,5,-1.2
26.9,210,4.6,-2.4
26.9,210,4.1,-3.6
26.9,210,3.5,-4.7
26.9,210,3,-5.7
26.9,210,2.5,-6.5
26.9,210,2,-7.1
26.9,210,1.6,-7.4
27,210,1.3,-7.5
27,210,1,-7.4
27,210,0.7,-7.2
27,210,0.3,-6.9
27,210,-0.2,-6.5
27,210,-0.7,-5.9
27,210,-1.1,-5.2
27,210,-1.4,-4.3
27,210,-1.5,-3.4
27,210,-1.5,-2.3
27,210,-1.4,-1.1
27,210,-1.1,0.1
27,210,-0.8,1.4
27,210,-0.5,2.5
27,211,-0.2,3.5
27,211,0.2,4.2
27,211,0.5,4.7
27,211,0.8,5
27,211,1,5.2
27,211,1.2,5.1
27,211,1.3,5
27,211,1.3,4.8
27,211,1.3,4.4
27,211,1.4,3.8
27,211,1.5,3.3
27.1,211,1.6,2.7
27.1,211,1.8,2.3
27.1,211,2.2,2
27.1,211,2.5,1.9
27.1,211,3,2.1
27.1,211,3.5,2.5
27.1,211,4,3
27.1,211,4.6,3.7
27.1,211,5.2,4.5
27.1,211,5.7,5.1
27.1,211,6.1,5.7
27.1,211,6.5,6
27.1,211,6.7,6.3
27.1,211,6.7,6.5
27.1,211,6.6,6.7
27.1,211,6.3,6.8
27.1,211,5.8,6.8
27.1,211,5.2,6.7
27.1,211,4.4,6.3
27.1,211,3.6,5.9
27.1,211,2.7,5.5
27.1,212,1.9,5
27.1,212,1.2,4.5
27.1,212,0.5,4.1
27.1,212,0.1,3.7
27.2,212,-0.1,3.5
27.2,212,-0.2,3.5
27.2,212,-0.1,3.7
27.2,212,0.1,4.1
27.2,212,0.4,4.6
27.2,212,0.8,5
27.2,212,1.2,5.4
27.2,212,1.4,5.7
27.2,212,1.5,5.9
27.2,212,1.5,6
27.2,212,1.3,6
27.2,212,0.8,5.8
27.2,212,0.2,5.5
27.2,212,-0.6,5
27.2,212,-1.6,4.5
27.2,212,-2.7,3.8
27.2,212,-3.9,3
27.2,212,-5,2.1
27.2,212,-6.2,1.2
27.2,212,-7.2,0.4
27.2,212,-8,-0.4
27.2,212,-8.7,-1.1
27.2,212,-9.1,-1.6
27.2,212,-9.3,-1.8
27.2,212,-9.3,-1.9
27.3,212,-9,-1.7
27.3,212,-8.7,-1.4
27.3,212,-8.2,-0.9
27.3,213,-7.6,-0.4
27.3,213,-7,0.2
27.3,213,-6.4,0.8
27.3,213,-5.7,1.4
27.3,213,-5.1,1.9
27.3,213,-4.5,2.4
27.3,213,-4,2.9
27.3,213,-3.5,3.3
27.3,213,-3.2,3.7
27.3,213,-2.8,4.1
27.3,213,-2.6,4.3
27.3,213,-2.4,4.4
27.3,213,-2.2,4.4
27.3,213,-2.1,4.2
27.3,213,-2,3.9
27.3,213,-1.9,3.4
27.3,213,-1.7,2.7
27.3,213,-1.6,2
27.3,213,-1.3,1.2
27.3,213,-1.1,0.4
27.3,213,-0.7,-0.4
27.3,213,-0.3,-1
27.4,213,0.2,-1.6
27.4,213,0.6,-2.1
27.4,213,1.1,-2.5
27.4,213,1.5,-2.8
27.4,213,1.8,-3.1
27.4,213,2.1,-3.2
27.4,213,2.4,-3.2
27.4,213,2.7,-3.2
27.4,213,3,-3.1
27.4,213,3.3,-3.2
27.4,214,3.6,-3.4
27.4,214,3.8,-3.7
27.4,214,4,-3.9
27.4,214,4,-4
27.4,214,4,-4
