0,0,0,0
0,0,-0.1,-0.1
0,0,1,1.2
0,0,12.1,14.2
0,0,49.6,58.4
0,0,123.8,145.6
0,0,228.6,269
0,0,352.4,414.7
0,0,488.7,575
0,0,632.5,744.1
0,0,774.9,911.7
0,0,906.3,1066.3
0,0,1019.1,1199
0.1,0,1108.8,1304.5
0.1,0,1173,1380.1
0.1,0,1210.7,1424.5
0.1,0,1220.8,1436.3
0.1,0,1203.1,1415.3
0.1,0,1160.4,1364.8
0.1,0,1097.7,1290.6
0.1,0,1018.4,1197
0.1,0,924.5,1086
0.1,0,819.6,962.2
0.1,0,709.5,832.4
0.1,0,598.4,701.4
0.1,0,487.5,570.8
0.1,0,378.6,442.6
0.1,0,275.2,320.9
0.1,0,179.8,208.6
0.1,0,92.3,105.5
0.1,0,12.1,11
0.1,0,-59.7,-73.8
0.1,1,-122.7,-148.1
0.1,1,-177.6,-213.2
0.1,1,-226,-270.6
0.1,1,-268.4,-321.1
0.1,1,-305.4,-365.2
0.1,1,-337.7,-403.8
0.2,1,-366.4,-438.2
0.2,1,-392.6,-469.4
0.2,1,-416.9,-498.4
0.2,1,-439.8,-525.3
0.2,1,-461.4,-550.4
0.2,1,-482.1,-574.2
0.2,1,-502.7,-597.7
0.2,1,-523.2,-620.9
0.2,1,-542.8,-642.8
0.2,1,-561.6,-663.6
0.2,1,-580.1,-684.2
0.2,1,-598.4,-704.5
0.2,1,-615.4,-723.3
0.2,1,-630.6,-740.2
0.2,1,-644.7,-756.1
0.2,1,-658.1,-771.4
0.2,1,-669.8,-784.9
0.2,1,-679.3,-795.8
0.2,1,-687.2,-805
0.2,1,-694.1,-813.3
0.2,1,-699.4,-819.8
0.2,1,-702.5,-823.8
0.2,1,-703.8,-826
0.2,1,-704.3,-827.1
0.2,1,-703.7,-827
0.3,1,-701.4,-824.8
0.3,2,-697.6,-820.8
0.3,2,-693.2,-815.9
0.3,2,-688,-810.1
0.3,2,-681.8,-802.9
0.3,2,-674.4,-794.2
0.3,2,-666.3,-784.6
0.3,2,-657.9,-774.4
0.3,2,-648.7,-763.2
0.3,2,-638.8,-751
0.3,2,-628.3,-738.2
0.3,2,-617.6,-725
0.3,2,-606.4,-711.2
0.3,2,-594.9,-696.8
0.3,2,-583,-681.9
0.3,2,-570.7,-666.6
0.3,2,-558.3,-651.1
0.3,2,-545.7,-635.3
0.3,2,-532.6,-619.1
0.3,2,-519,-602.3
0.3,2,-505,-585.4
0.3,2,-490.9,-568.6
0.3,2,-476.4,-551.5
0.3,2,-461.2,-533.8
0.3,2,-445.6,-515.7
0.4,2,-430.1,-497.8
0.4,2,-414.5,-479.7
0.4,2,-398.2,-460.9
0.4,2,-381.6,-441.6
0.4,2,-365.1,-422.4
0.4,2,-348.8,-403.4
0.4,2,-332.1,-384
0.4,2,-315.2,-364.2
0.4,3,-298.5,-344.6
0.4,3,-282.2,-325.5
0.4,3,-265.7,-306.1
0.4,3,-248.7,-286.1
0.4,3,-231.9,-266.2
0.4,3,-215.4,-246.6
0.4,3,-198.8,-226.8
0.4,3,-181.7,-206.5
0.4,3,-164.7,-186.2
0.4,3,-148.1,-166.5
0.4,3,-131.7,-147.1
0.4,3,-115,-127.4
0.4,3,-98.4,-108.1
0.4,3,-82.4,-89.5
0.4,3,-66.7,-71.4
0.4,3,-51,-53.5
0.4,3,-35.5,-35.8
0.5,3,-20.5,-18.7
0.5,3,-5.9,-2.2
0.5,3,8.6,14.2
0.5,3,22.9,30.4
0.5,3,36.9,46.2
0.5,3,50.6,61.5
0.5,3,64.1,76.6
0.5,3,77.6,91.6
0.5,3,90.8,106.2
0.5,3,103.6,120.3
0.5,3,116.2,134.1
0.5,3,128.4,147.5
0.5,3,140.3,160.7
0.5,3,151.8,173.4
0.5,3,162.7,185.8
0.5,4,173,197.7
0.5,4,182.8,209.3
0.5,4,192.4,220.8
0.5,4,201.6,231.9
0.5,4,210.3,242.7
0.5,4,219,253.4
0.5,4,227.6,264
0.5,4,236,274.2
0.5,4,244,283.8
0.5,4,251.5,292.9
0.6,4,258.7,301.7
0.6,4,265.5,310.2
0.6,4,271.5,317.8
0.6,4,276.9,324.7
0.6,4,282,331.2
0.6,4,287,337.2
0.6,4,291.4,342.4
0.6,4,295.3,346.6
0.6,4,299.1,350.5
0.6,4,303,354.2
0.6,4,306.6,357.4
0.6,4,310,360
0.6,4,313.4,362.7
0.6,4,317.2,365.6
0.6,4,320.9,368.6
0.6,4,324.2,371.3
0.6,4,327.5,374.2
0.6,4,330.9,377.5
0.6,4,334.1,380.8
0.6,4,336.8,384
0.6,4,339.2,387.2
0.6,4,341.4,390.8
0.6,5,343.4,394.4
0.6,5,344.9,397.7
0.6,5,346,400.8
0.7,5,346.9,403.9
0.7,5,347.6,406.9
0.7,5,348,409.3
0.7,5,348,411.4
0.7,5,347.9,413.2
0.7,5,347.7,414.7
0.7,5,347.2,415.7
0.7,5,346.3,416
0.7,5,345.3,415.9
0.7,5,344.1,415.3
0.7,5,342.8,414.1
0.7,5,341.2,412.4
0.7,5,339.5,410.2
0.7,5,337.8,407.6
0.7,5,336,404.7
0.7,5,334.1,401.5
0.7,5,332.1,398
0.7,5,329.8,394.4
0.7,5,327.4,390.5
0.7,5,324.6,386.6
0.7,5,321.6,382.3
0.7,5,318.2,377.8
0.7,5,314.6,373
0.7,5,310.8,368
0.7,5,306.9,362.6
0.8,5,302.7,356.7
0.8,5,298.4,350.4
0.8,5,294,343.6
0.8,5,289.4,336.3
0.8,6,284.4,328.1
0.8,6,279,319.2
0.8,6,273.3,309.7
0.8,6,267.2,299.6
0.8,6,260.5,288.7
0.8,6,253.2,277.2
0.8,6,245.8,265.5
0.8,6,238.3,253.6
0.8,6,230.6,241.4
0.8,6,222.5,228.9
0.8,6,214.6,216.5
0.8,6,207,204.5
0.8,6,199.6,192.9
0.8,6,192.4,181.5
0.8,6,185.6,170.9
0.8,6,179.4,161.3
0.8,6,173.7,152.6
0.8,6,168.2,144.5
0.8,6,163.1,137.4
0.8,6,158.4,131.5
0.8,6,154.2,126.6
0.9,6,150,122.7
0.9,6,146,119.6
0.9,6,142.3,117.7
0.9,6,138.9,116.7
0.9,6,135.4,116.4
0.9,6,131.9,116.8
0.9,6,128.5,117.8
0.9,6,125.4,119.4
0.9,6,122.3,121.4
0.9,6,119.1,123.4
0.9,6,116,125.6
0.9,7,113.1,127.9
0.9,7,110.2,130
0.9,7,107,131.6
0.9,7,103.6,132.9
0.9,7,100,133.9
0.9,7,96.3,134.5
0.9,7,92.3,134.5
0.9,7,88.2,134.1
0.9,7,84.1,133.4
0.9,7,80,132.3
0.9,7,75.8,130.8
0.9,7,71.6,128.9
0.9,7,67.3,126.7
0.9,7,63,124.1
1,7,58.6,121.2
1,7,54,117.8
1,7,49.4,114.1
1,7,44.8,110
1,7,40.1,105.5
1,7,35.4,100.7
1,7,30.7,95.6
1,7,26,90.1
1,7,21.3,84.4
1,7,16.8,78.5
1,7,12.2,72.4
1,7,7.7,66.1
1,7,3.3,59.8
1,7,-1,53.6
1,7,-5.3,47.3
1,7,-9.7,40.9
1,7,-14.1,34.5
1,7,-18.2,28.3
1,8,-22.4,22.1
1,8,-26.6,15.9
1,8,-30.8,9.6
1,8,-34.8,3.6
1,8,-38.8,-2.4
1,8,-42.8,-8.6
1,8,-46.9,-14.8
1.1,8,-50.7,-20.9
1.1,8,-54.4,-27.1
1.1,8,-58.2,-33.3
1.1,8,-61.9,-39.7
1.1,8,-65.5,-46
1.1,8,-68.9,-52
1.1,8,-72.3,-58.2
1.1,8,-75.7,-64.3
1.1,8,-79.1,-70.3
1.1,8,-82.3,-76
1.1,8,-85.6,-81.8
1.1,8,-89.1,-87.7
1.1,8,-92.5,-93.4
1.1,8,-95.7,-98.9
1.1,8,-98.9,-104.3
1.1,8,-101.9,-109.7
1.1,8,-104.8,-114.8
1.1,8,-107.3,-119.5
1.1,8,-109.6,-124
1.1,8,-111.7,-128.2
1.1,8,-113.5,-132.2
1.1,8,-115,-135.8
1.1,8,-116.2,-139.2
1.1,8,-117.2,-142.4
1.1,8,-118.1,-145.5
1.2,9,-118.8,-148.3
1.2,9,-119.5,-151
1.2,9,-120.2,-153.7
1.2,9,-121,-156.3
1.2,9,-121.9,-158.7
1.2,9,-122.8,-161.1
1.2,9,-123.8,-163.4
1.2,9,-124.9,-165.7
1.2,9,-126,-167.9
1.2,9,-127.2,-170
1.2,9,-128.3,-171.9
1.2,9,-129.2,-173.6
1.2,9,-130.1,-175.1
1.2,9,-130.9,-176.5
1.2,9,-131.5,-177.7
1.2,9,-132,-178.9
1.2,9,-132.4,-180.2
1.2,9,-132.9,-181.6
1.2,9,-133.4,-183.2
1.2,9,-134.1,-184.9
1.2,9,-135,-186.8
1.2,9,-136.4,-189.2
1.2,9,-138.3,-192.1
1.2,9,-140.5,-195.5
1.2,9,-142.9,-199.5
1.3,9,-145.3,-204.2
1.3,9,-147.7,-209.6
1.3,9,-149.9,-215.7
1.3,9,-152.1,-222.6
1.3,9,-154.4,-230.4
1.3,9,-156.9,-238.9
1.3,9,-159.5,-248
1.3,10,-162.2,-257.7
1.3,10,-165.2,-268
1.3,10,-168.4,-278.6
1.3,10,-171.7,-289.1
1.3,10,-174.9,-299.3
1.3,10,-178.2,-309
1.3,10,-181.4,-317.8
1.3,10,-184.2,-325.4
1.3,10,-186.2,-331.2
1.3,10,-187.5,-335.3
1.3,10,-187.9,-337.3
1.3,10,-187.3,-337.1
1.3,10,-185.6,-334.7
1.3,10,-182.8,-330
1.3,10,-179.1,-323.4
1.3,10,-174.4,-314.9
1.3,10,-168.8,-304.6
1.3,10,-162.3,-292.7
1.4,10,-155.1,-279.5
1.4,10,-147.4,-265.3
1.4,10,-139.1,-250.3
1.4,10,-130.5,-234.7
1.4,10,-121.7,-218.8
1.4,10,-112.7,-202.9
1.4,10,-103.6,-186.8
1.4,10,-94.4,-170.9
1.4,10,-85.3,-155.1
1.4,10,-76.4,-139.7
1.4,10,-67.6,-124.6
1.4,10,-58.9,-109.8
1.4,10,-50.3,-95.3
1.4,10,-41.9,-81.2
1.4,11,-33.6,-67.6
1.4,11,-25.5,-54.4
1.4,11,-17.6,-41.7
1.4,11,-10.2,-29.5
1.4,11,-3.1,-17.9
1.4,11,3.4,-6.6
1.4,11,9.5,4.2
1.4,11,15.3,14.7
1.4,11,20.7,25
1.4,11,25.9,34.9
1.4,11,30.8,44.7
1.5,11,35.4,54.2
1.5,11,39.8,63.6
1.5,11,43.9,72.7
1.5,11,47.9,81.4
1.5,11,51.7,89.8
1.5,11,55.4,97.7
1.5,11,58.8,105.3
1.5,11,61.9,112.6
1.5,11,64.7,119.6
1.5,11,67.2,126.4
1.5,11,69.3,132.8
1.5,11,70.9,138.8
1.5,11,72.1,144.6
1.5,11,72.9,150
1.5,11,73.3,155.1
1.5,11,73.1,159.9
1.5,11,72.7,164.2
1.5,11,72,168.4
1.5,11,71.2,172.4
1.5,11,70.2,176.1
1.5,11,69.2,179.5
1.5,12,68,182.6
1.5,12,66.6,185.2
1.5,12,65.1,187.3
1.5,12,63.4,188.9
1.6,12,61.6,190.1
1.6,12,59.8,190.8
1.6,12,57.9,190.8
1.6,12,55.8,190.1
1.6,12,53.8,189
1.6,12,51.9,187.4
1.6,12,50,185.5
1.6,12,48.1,183.1
1.6,12,46.3,180.5
1.6,12,44.6,177.6
1.6,12,43.1,174.6
1.6,12,41.8,171.3
1.6,12,40.6,167.9
1.6,12,39.5,164.4
1.6,12,38.4,160.8
1.6,12,37.1,156.9
1.6,12,35.7,152.9
1.6,12,34.2,148.8
1.6,12,32.5,144.6
1.6,12,30.7,140.2
1.6,12,28.8,135.8
1.6,12,26.7,131.4
1.6,12,24.5,127
1.6,12,22.1,122.5
1.6,12,19.6,117.9
1.7,12,17.1,113.2
1.7,12,14.5,108.4
1.7,12,12,103.4
1.7,13,9.7,98.3
1.7,13,7.6,93.4
1.7,13,5.9,88.5
1.7,13,4.3,83.6
1.7,13,2.8,78.7
1.7,13,1.2,73.8
1.7,13,-0.2,68.9
1.7,13,-1.5,64
1.7,13,-2.9,59
1.7,13,-4.3,53.7
1.7,13,-5.8,48.2
1.7,13,-7.3,42.4
1.7,13,-8.7,36.7
1.7,13,-10.2,31.2
1.7,13,-11.8,26.2
1.7,13,-13.7,21.6
1.7,13,-15.7,17.5
1.7,13,-17.6,14
1.7,13,-19.2,10.9
1.7,13,-20.4,8.2
1.7,13,-21.4,5.8
1.7,13,-22,3.6
1.8,13,-22.6,1.4
1.8,13,-23.2,-0.8
1.8,13,-23.7,-3.3
1.8,13,-24,-6
1.8,13,-24.2,-8.9
1.8,13,-24.3,-12.1
1.8,13,-24.1,-15.5
1.8,13,-23.9,-19.2
1.8,13,-23.8,-23.1
1.8,13,-23.7,-27
1.8,14,-23.7,-30.7
1.8,14,-23.7,-34.2
1.8,14,-23.7,-37.5
1.8,14,-23.8,-40.8
1.8,14,-23.8,-43.7
1.8,14,-23.7,-46.3
1.8,14,-23.5,-48.8
1.8,14,-23.3,-51.1
1.8,14,-23.1,-53.2
1.8,14,-23.1,-55.2
1.8,14,-23.3,-57
1.8,14,-23.8,-58.6
1.8,14,-24.5,-59.9
1.8,14,-25.2,-61
1.8,14,-25.9,-61.8
1.9,14,-26.8,-62.6
1.9,14,-27.6,-63.5
1.9,14,-28.3,-64.5
1.9,14,-29,-65.5
1.9,14,-29.6,-66.9
1.9,14,-30.1,-68.5
1.9,14,-30.5,-70.4
1.9,14,-30.6,-72.6
1.9,14,-30.5,-75
1.9,14,-30.2,-77.5
1.9,14,-29.7,-80.2
1.9,14,-29.3,-82.9
1.9,14,-29,-85.8
1.9,14,-28.9,-88.9
1.9,14,-28.8,-92
1.9,14,-28.8,-95
1.9,14,-28.8,-97.9
1.9,15,-28.9,-100.7
1.9,15,-28.9,-103.2
1.9,15,-29,-105.5
1.9,15,-29,-107.5
1.9,15,-29.1,-109.2
1.9,15,-29.2,-110.6
1.9,15,-29.2,-111.8
1.9,15,-29.2,-112.8
2,15,-29.2,-113.8
2,15,-29.1,-114.7
2,15,-28.9,-115.5
2,15,-28.6,-116.3
2,15,-28.3,-117.1
2,15,-27.9,-117.8
2,15,-27.4,-118.5
2,15,-26.9,-118.9
2,15,-26.2,-119.2
2,15,-25.6,-119.3
2,15,-24.9,-119.2
2,15,-24.3,-118.9
2,15,-23.7,-118.3
2,15,-23.1,-117.3
2,15,-22.7,-116.1
2,15,-22.3,-114.7
2,15,-21.8,-112.9
2,15,-21.3,-111
2,15,-20.8,-108.7
2,15,-20.3,-106.4
2,15,-19.9,-103.9
2,15,-19.6,-101.6
2,15,-19.4,-99.3
2,15,-19.2,-97.2
2,16,-19,-95.2
2.1,16,-18.7,-93.4
2.1,16,-18.3,-91.8
2.1,16,-18,-90.4
2.1,16,-17.8,-89.1
2.1,16,-17.7,-88
2.1,16,-17.7,-86.9
2.1,16,-17.8,-85.9
2.1,16,-18.1,-84.9
2.1,16,-18.5,-83.9
2.1,16,-18.9,-82.8
2.1,16,-19.3,-81.6
2.1,16,-19.6,-80.4
2.1,16,-19.6,-78.8
2.1,16,-19.3,-77
2.1,16,-18.8,-75
2.1,16,-17.9,-72.8
2.1,16,-16.9,-70.4
2.1,16,-15.5,-67.8
2.1,16,-13.8,-65
2.1,16,-12,-62.2
2.1,16,-10.1,-59.3
2.1,16,-8.1,-56.4
2.1,16,-6.2,-53.5
2.1,16,-4.3,-50.6
2.1,16,-2.5,-47.7
2.2,16,-0.8,-44.9
2.2,16,0.7,-42.2
2.2,16,2.1,-39.6
2.2,16,3.4,-37.1
2.2,16,4.5,-34.8
2.2,16,5.6,-32.5
2.2,17,6.6,-30.4
2.2,17,7.6,-28.4
2.2,17,8.5,-26.5
2.2,17,9.2,-24.6
2.2,17,9.8,-22.7
2.2,17,10.1,-20.9
2.2,17,10.2,-19.2
2.2,17,10.1,-17.4
2.2,17,9.8,-15.6
2.2,17,9.3,-13.8
2.2,17,8.8,-12.1
2.2,17,8.2,-10.4
2.2,17,7.7,-8.8
2.2,17,7.1,-7.3
2.2,17,6.5,-5.8
2.2,17,5.8,-4.3
2.2,17,5.1,-2.9
2.2,17,4.5,-1.5
2.2,17,3.8,-0.2
2.3,17,3.3,1.1
2.3,17,2.8,2.3
2.3,17,2.5,3.4
2.3,17,2.4,4.5
2.3,17,2.5,5.4
2.3,17,2.6,6
2.3,17,2.8,6.6
2.3,17,3.1,7.2
2.3,17,3.5,7.9
2.3,17,3.9,8.7
2.3,17,4.3,9.7
2.3,17,4.8,10.8
2.3,17,5.2,12
2.3,18,5.6,13.4
2.3,18,6.1,14.8
2.3,18,6.5,16.4
2.3,18,7,18.1
2.3,18,7.4,19.7
2.3,18,7.8,21.4
2.3,18,8.3,23
2.3,18,9,24.6
2.3,18,9.6,26.3
2.3,18,10.4,27.8
2.3,18,11.1,29.3
2.3,18,11.8,30.6
2.4,18,12.5,31.7
2.4,18,13.1,32.6
2.4,18,13.5,33.2
2.4,18,13.8,33.6
2.4,18,13.8,33.6
2.4,18,13.8,33.4
2.4,18,13.6,33.1
2.4,18,13.3,32.8
2.4,18,12.9,32.5
2.4,18,12.5,32.3
2.4,18,12,32.1
2.4,18,11.4,32.1
2.4,18,10.8,32.2
2.4,18,10.2,32.5
2.4,18,9.6,32.9
2.4,18,8.9,33.4
2.4,18,8.3,34.1
2.4,18,7.8,34.8
2.4,18,7.2,35.5
2.4,18,6.8,36.2
2.4,19,6.3,37
2.4,19,6,37.6
2.4,19,5.8,38.3
2.4,19,5.7,38.9
2.4,19,5.8,39.3
2.5,19,5.9,39.6
2.5,19,6.1,39.8
2.5,19,6.5,39.8
2.5,19,6.9,39.8
2.5,19,7.4,39.7
2.5,19,8,39.7
2.5,19,8.6,39.7
2.5,19,9.2,39.9
2.5,19,9.6,40.2
2.5,19,9.8,40.5
2.5,19,9.8,40.9
2.5,19,9.7,41.3
2.5,19,9.4,41.7
2.5,19,9.1,42.2
2.5,19,8.8,42.7
2.5,19,8.4,43.3
2.5,19,8.2,43.9
2.5,19,7.9,44.5
2.5,19,7.7,45.1
2.5,19,7.5,45.7
2.5,19,7.3,46.2
2.5,19,7.2,46.6
2.5,19,7.1,46.8
2.5,19,7.2,47
2.5,19,7.3,47
2.6,19,7.4,46.9
2.6,19,7.6,46.7
2.6,20,7.8,46.3
2.6,20,8.1,45.8
2.6,20,8.4,45.2
2.6,20,8.8,44.6
2.6,20,9.2,44
2.6,20,9.7,43.3
2.6,20,10.1,42.6
2.6,20,10.6,41.9
2.6,20,10.9,41.1
2.6,20,11.2,40.4
2.6,20,11.3,39.6
2.6,20,11.4,38.9
2.6,20,11.3,38.3
2.6,20,11.1,37.8
2.6,20,10.7,37.3
2.6,20,10.2,36.9
2.6,20,9.6,36.5
2.6,20,8.9,36.2
2.6,20,8.3,35.9
2.6,20,7.7,35.6
2.6,20,7.1,35.3
2.6,20,6.6,35
2.6,20,6.2,34.7
2.7,20,5.7,34.5
2.7,20,5.3,34.2
2.7,20,4.9,34
2.7,20,4.6,33.9
2.7,20,4.2,33.8
2.7,20,4,33.8
2.7,20,3.8,33.8
2.7,20,3.7,33.9
2.7,20,3.8,34
2.7,21,4,34.1
2.7,21,4.3,34
2.7,21,4.7,33.7
2.7,21,5.2,33.1
2.7,21,5.8,32.4
2.7,21,6.4,31.5
2.7,21,7,30.4
2.7,21,7.5,29.1
2.7,21,7.9,27.7
2.7,21,8.2,26.2
2.7,21,8.3,24.7
2.7,21,8.4,23.3
2.7,21,8.3,21.8
2.7,21,8.1,20.5
2.7,21,7.9,19.2
2.7,21,7.5,17.9
2.8,21,7.1,16.6
2.8,21,6.7,15.5
2.8,21,6.2,14.4
2.8,21,5.8,13.4
2.8,21,5.4,12.6
2.8,21,5.2,11.9
2.8,21,5,11.3
2.8,21,4.9,11
2.8,21,4.8,10.8
2.8,21,4.8,10.8
2.8,21,5,10.9
2.8,21,5.2,11
2.8,21,5.5,11.1
2.8,21,5.8,11
2.8,21,6.1,10.8
2.8,21,6.3,10.5
2.8,22,6.5,10.1
2.8,22,6.5,9.5
2.8,22,6.5,8.8
2.8,22,6.3,8.1
2.8,22,6,7.2
2.8,22,5.7,6.2
2.8,22,5.3,5.3
2.8,22,4.8,4.4
2.8,22,4.3,3.7
2.9,22,3.6,3
2.9,22,2.8,2.3
2.9,22,1.9,1.7
2.9,22,0.9,1.2
2.9,22,-0.1,0.7
2.9,22,-0.9,0.2
2.9,22,-1.5,-0.2
2.9,22,-2,-0.6
2.9,22,-2.1,-1
2.9,22,-1.9,-1.3
2.9,22,-1.5,-1.5
2.9,22,-0.8,-1.6
2.9,22,-0.1,-1.8
2.9,22,0.7,-2
2.9,22,1.4,-2.2
2.9,22,2.1,-2.4
2.9,22,2.8,-2.6
2.9,22,3.5,-2.8
2.9,22,4,-2.9
2.9,22,4.4,-3
2.9,22,4.7,-3
2.9,22,4.9,-2.9
2.9,22,5.1,-2.6
2.9,23,5.1,-2.1
2.9,23,5,-1.5
3,23,4.8,-0.8
3,23,4.5,0.1
3,23,4.1,1
3,23,3.7,2
3,23,3.2,2.9
3,23,2.7,3.8
3,23,2.2,4.6
3,23,1.7,5.4
3,23,1.3,6.2
3,23,0.9,7
3,23,0.8,7.7
3,23,0.7,8.2
3,23,0.7,8.6
3,23,0.8,8.9
3,23,0.9,9
3,23,1.2,9.1
3,23,1.4,9.1
3,23,1.7,9.1
3,23,2,9
3,23,2.3,8.8
3,23,2.6,8.6
3,23,2.9,8.2
3,23,3.2,7.8
3,23,3.5,7.3
3,23,3.7,6.7
3.1,23,3.7,6.1
3.1,23,3.8,5.4
3.1,23,3.8,4.7
3.1,23,3.8,4.1
3.1,23,3.9,3.5
3.1,24,4.1,2.8
3.1,24,4.3,2.1
3.1,24,4.5,1.3
3.1,24,4.8,0.6
3.1,24,5,-0.1
3.1,24,5.3,-0.9
3.1,24,5.4,-1.6
3.1,24,5.5,-2.4
3.1,24,5.6,-3.2
3.1,24,5.7,-3.8
3.1,24,5.8,-4.3
3.1,24,5.8,-4.7
3.1,24,5.8,-4.9
3.1,24,5.7,-5
3.1,24,5.5,-5.1
3.1,24,5.2,-5
3.1,24,4.8,-4.8
3.1,24,4.4,-4.6
3.1,24,3.9,-4.2
3.1,24,3.5,-3.9
3.2,24,2.9,-3.6
3.2,24,2.3,-3.5
3.2,24,1.8,-3.4
3.2,24,1.2,-3.4
3.2,24,0.8,-3.4
3.2,24,0.5,-3.4
3.2,24,0.3,-3.3
3.2,24,0.2,-3.2
3.2,24,0.3,-3.1
3.2,24,0.3,-3
3.2,24,0.4,-3
3.2,24,0.5,-3.1
3.2,25,0.6,-3.3
3.2,25,0.7,-3.5
3.2,25,0.9,-3.7
3.2,25,1.2,-3.9
3.2,25,1.5,-4.2
3.2,25,1.6,-4.6
3.2,25,1.7,-5.2
3.2,25,1.5,-6
3.2,25,1.2,-6.8
3.2,25,0.7,-7.7
3.2,25,0,-8.7
3.2,25,-0.7,-9.6
3.2,25,-1.5,-10.5
3.3,25,-2.3,-11.2
3.3,25,-3,-11.7
3.3,25,-3.7,-11.9
3.3,25,-4.3,-11.9
3.3,25,-4.8,-11.5
3.3,25,-5.2,-10.9
3.3,25,-5.4,-10.1
3.3,25,-5.5,-9
3.3,25,-5.5,-7.8
3.3,25,-5.4,-6.5
3.3,25,-5.1,-5.3
3.3,25,-4.8,-4.1
3.3,25,-4.4,-2.9
3.3,25,-3.8,-1.6
3.3,25,-3,-0.5
3.3,25,-2.2,0.7
3.3,25,-1.2,1.7
3.3,25,-0.2,2.5
3.3,25,0.8,3.2
3.3,26,1.8,3.8
3.3,26,2.9,4.3
3.3,26,3.9,4.7
3.3,26,5,5.1
3.3,26,6,5.3
3.3,26,7,5.6
3.4,26,7.9,5.7
3.4,26,8.5,5.8
3.4,26,8.9,5.9
3.4,26,9.1,5.9
3.4,26,9,5.9
3.4,26,8.6,5.9
3.4,26,8,5.9
3.4,26,7.3,5.8
3.4,26,6.4,5.7
3.4,26,5.6,5.6
3.4,26,4.8,5.5
3.4,26,4.1,5.3
3.4,26,3.6,5.1
3.4,26,3.2,4.9
3.4,26,2.9,4.7
3.4,26,2.7,4.4
3.4,26,2.6,4.2
3.4,26,2.6,4
3.4,26,2.7,3.9
3.4,26,2.9,3.8
3.4,26,3,3.6
3.4,26,3.2,3.5
3.4,26,3.3,3.3
3.4,26,3.5,3.1
3.4,26,3.6,2.9
3.5,26,3.6,2.7
3.5,27,3.7,2.7
3.5,27,3.8,2.7
3.5,27,4,2.9
3.5,27,4.1,3.1
3.5,27,4.3,3.5
3.5,27,4.4,3.8
3.5,27,4.5,4.1
3.5,27,4.6,4.3
3.5,27,4.6,4.5
3.5,27,4.5,4.5
3.5,27,4.3,4.3
3.5,27,4.2,4.1
3.5,27,4,3.7
3.5,27,3.8,3.3
3.5,27,3.7,2.7
3.5,27,3.5,2
3.5,27,3.3,1.2
3.5,27,3.1,0.3
3.5,27,2.8,-0.6
3.5,27,2.4,-1.5
3.5,27,2,-2.3
3.5,27,1.6,-3
3.5,27,1.2,-3.5
3.5,27,0.7,-3.9
3.6,27,0.1,-4.2
3.6,27,-0.4,-4.4
3.6,27,-1,-4.5
3.6,27,-1.5,-4.5
3.6,27,-2,-4.4
3.6,27,-2.4,-4.4
3.6,27,-2.6,-4.3
3.6,27,-2.7,-4.1
3.6,28,-2.6,-3.9
3.6,28,-2.4,-3.6
3.6,28,-2.2,-3.2
3.6,28,-1.9,-2.8
3.6,28,-1.6,-2.4
3.6,28,-1.3,-2
3.6,28,-1.1,-1.6
3.6,28,-0.8,-1.4
3.6,28,-0.7,-1.3
3.6,28,-0.6,-1.4
3.6,28,-0.6,-1.7
3.6,28,-0.8,-2
3.6,28,-0.9,-2.4
3.6,28,-1.2,-2.8
3.6,28,-1.4,-3.2
3.6,28,-1.7,-3.5
3.6,28,-1.8,-3.7
3.7,28,-1.8,-3.7
3.7,28,-1.7,-3.7
3.7,28,-1.5,-3.5
3.7,28,-1.3,-3.3
3.7,28,-1.3,-3.1
3.7,28,-1.3,-3.1
3.7,28,-1.5,-3.1
3.7,28,-1.7,-3.2
3.7,28,-1.9,-3.2
3.7,28,-1.8,-3.3
3.7,28,-1.6,-3.3
3.7,28,-1.1,-3.3
3.7,28,-0.4,-3.2
3.7,28,0.4,-3
3.7,28,1.3,-2.8
3.7,29,2.2,-2.4
3.7,29,3.2,-1.9
3.7,29,4.1,-1.4
3.7,29,5,-0.8
3.7,29,5.8,-0.2
3.7,29,6.5,0.4
3.7,29,7.1,1
3.7,29,7.5,1.7
3.7,29,7.9,2.2
3.7,29,8.2,2.7
3.8,29,8.4,3.1
3.8,29,8.4,3.3
3.8,29,8.3,3.3
3.8,29,8,3.2
3.8,29,7.5,2.8
3.8,29,6.9,2.2
3.8,29,6.1,1.5
3.8,29,5.3,0.7
3.8,29,4.5,-0.2
3.8,29,3.8,-1
3.8,29,3.2,-1.8
3.8,29,2.6,-2.4
3.8,29,2.3,-2.9
3.8,29,2.1,-3
3.8,29,2,-3
3.8,29,1.9,-2.7
3.8,29,1.9,-2.2
3.8,29,1.9,-1.5
3.8,29,1.9,-0.6
3.8,29,1.9,0.4
3.8,29,1.9,1.4
3.8,29,1.9,2.5
3.8,30,2.1,3.5
3.8,30,2.2,4.3
3.8,30,2.3,5
3.9,30,2.3,5.4
3.9,30,2.3,5.5
3.9,30,2.1,5.4
3.9,30,1.9,5
3.9,30,1.5,4.3
3.9,30,1.1,3.5
3.9,30,0.6,2.4
3.9,30,0.2,1.3
3.9,30,-0.2,0.2
3.9,30,-0.5,-0.9
3.9,30,-0.9,-1.8
3.9,30,-1.3,-2.6
3.9,30,-1.8,-3.3
3.9,30,-2.3,-3.7
3.9,30,-2.8,-3.9
3.9,30,-3.4,-4
3.9,30,-3.9,-3.9
3.9,30,-4.4,-3.8
3.9,30,-4.8,-3.5
3.9,30,-5.1,-3.2
3.9,30,-5.3,-2.7
3.9,30,-5.3,-2.1
3.9,30,-5.1,-1.5
3.9,30,-4.7,-0.8
3.9,30,-4.2,-0.1
4,30,-3.5,0.7
4,30,-2.7,1.4
4,30,-2,2
4,30,-1.3,2.6
4,31,-0.7,2.9
4,31,-0.2,3.1
4,31,0.2,3.1
4,31,0.6,3.1
4,31,1,2.9
4,31,1.4,2.8
4,31,1.8,2.7
4,31,2.1,2.5
4,31,2.3,2.4
4,31,2.4,2.2
4,31,2.4,2
4,31,2.2,1.7
4,31,2.1,1.4
4,31,1.8,1.2
4,31,1.5,0.9
4,31,1.1,0.7
4,31,0.6,0.4
4,31,0.2,0.2
4,31,-0.1,0
4,31,-0.4,-0.2
4,31,-0.6,-0.2
4.1,31,-0.9,-0.1
4.1,31,-1.1,0
4.1,31,-1.2,0.1
4.1,31,-1.4,0.2
4.1,31,-1.6,0.2
4.1,31,-1.9,0.1
4.1,31,-2.3,-0.1
4.1,31,-2.8,-0.3
4.1,31,-3.3,-0.7
4.1,31,-3.9,-1
4.1,31,-4.6,-1.2
4.1,32,-5.4,-1.5
4.1,32,-6.1,-1.7
4.1,32,-6.8,-1.7
4.1,32,-7.3,-1.7
4.1,32,-7.8,-1.7
4.1,32,-8,-1.6
4.1,32,-8.1,-1.5
4.1,32,-8,-1.4
4.1,32,-7.6,-1.3
4.1,32,-7.2,-1.2
4.1,32,-6.6,-1.2
4.1,32,-5.9,-1.2
4.1,32,-5.2,-1.2
4.1,32,-4.4,-1.2
4.2,32,-3.6,-1.2
4.2,32,-2.9,-1.1
4.2,32,-2.1,-1
4.2,32,-1.4,-0.8
4.2,32,-0.8,-0.6
4.2,32,-0.3,-0.5
4.2,32,0,-0.3
4.2,32,0.2,-0.1
4.2,32,0.3,0.1
4.2,32,0.2,0.3
4.2,32,0.2,0.5
4.2,32,0,0.6
4.2,32,-0.1,0.7
4.2,32,-0.1,0.7
4.2,32,-0.1,0.7
4.2,32,-0.1,0.6
4.2,32,-0.1,0.4
4.2,32,0,0.2
4.2,33,0,-0.1
4.2,33,0,-0.4
4.2,33,0.1,-0.7
4.2,33,0.1,-0.9
4.2,33,0.1,-1.1
4.2,33,0,-1.3
4.2,33,-0.2,-1.6
4.3,33,-0.5,-1.9
4.3,33,-0.8,-2.2
4.3,33,-1.2,-2.5
4.3,33,-1.5,-2.7
4.3,33,-1.9,-2.9
4.3,33,-2.2,-3
4.3,33,-2.5,-2.9
4.3,33,-2.7,-2.8
4.3,33,-2.8,-2.5
4.3,33,-2.9,-2.3
4.3,33,-2.9,-1.9
4.3,33,-2.9,-1.5
4.3,33,-2.8,-1
4.3,33,-2.5,-0.5
4.3,33,-2,0.1
4.3,33,-1.5,0.7
4.3,33,-0.9,1.2
4.3,33,-0.3,1.7
4.3,33,0.4,2.2
4.3,33,1.1,2.6
4.3,33,1.6,3
4.3,33,2,3.1
4.3,33,2.2,3
4.3,33,2.3,2.7
4.3,33,2.2,2.2
4.4,34,1.9,1.5
4.4,34,1.5,0.7
4.4,34,1.1,-0.2
4.4,34,0.5,-1.2
4.4,34,0,-2.3
4.4,34,-0.6,-3.3
4.4,34,-1.2,-4.2
4.4,34,-1.7,-5
4.4,34,-2.1,-5.7
4.4,34,-2.4,-6.4
4.4,34,-2.6,-7
4.4,34,-2.7,-7.5
4.4,34,-2.7,-8.1
4.4,34,-2.7,-8.4
4.4,34,-2.6,-8.7
4.4,34,-2.5,-8.8
4.4,34,-2.3,-8.8
4.4,34,-2.1,-8.7
4.4,34,-1.9,-8.5
4.4,34,-1.8,-8.2
4.4,34,-1.9,-7.8
4.4,34,-2.1,-7.4
4.4,34,-2.4,-7
4.4,34,-2.8,-6.6
4.4,34,-3,-6.1
4.5,34,-3.2,-5.6
4.5,34,-3.3,-5.2
4.5,34,-3.3,-4.9
4.5,34,-3.2,-4.6
4.5,34,-3.1,-4.2
4.5,34,-2.9,-3.8
4.5,34,-2.6,-3.4
4.5,35,-2.2,-2.9
4.5,35,-1.8,-2.5
4.5,35,-1.2,-2
4.5,35,-0.5,-1.7
4.5,35,0.2,-1.3
4.5,35,0.9,-1.1
4.5,35,1.6,-1
4.5,35,2.3,-1.2
4.5,35,2.8,-1.5
4.5,35,3.1,-2.1
4.5,35,3.2,-2.8
4.5,35,3,-3.8
4.5,35,2.4,-4.8
4.5,35,1.5,-5.9
4.5,35,0.4,-7
4.5,35,-0.7,-8
4.5,35,-1.8,-8.9
4.5,35,-2.7,-9.7
4.6,35,-3.3,-10.2
4.6,35,-3.7,-10.5
4.6,35,-3.9,-10.5
4.6,35,-3.8,-10.2
4.6,35,-3.5,-9.6
4.6,35,-3,-8.8
4.6,35,-2.4,-7.9
4.6,35,-1.6,-6.8
4.6,35,-0.7,-5.6
4.6,35,0.2,-4.4
4.6,35,1.2,-3.1
4.6,35,2,-1.9
4.6,35,2.7,-0.7
4.6,35,3.3,0.4
4.6,36,3.5,1.4
4.6,36,3.6,2.2
4.6,36,3.6,2.9
4.6,36,3.3,3.5
4.6,36,3.1,3.9
4.6,36,2.7,4.2
4.6,36,2.3,4.3
4.6,36,1.8,4.1
4.6,36,1.2,3.7
4.6,36,0.7,3.3
4.6,36,0.1,2.8
4.7,36,-0.4,2.3
4.7,36,-0.8,1.9
4.7,36,-1.1,1.6
4.7,36,-1.4,1.4
4.7,36,-1.6,1.4
4.7,36,-1.7,1.5
4.7,36,-1.8,1.5
4.7,36,-1.9,1.5
4.7,36,-1.9,1.4
4.7,36,-1.9,0.9
4.7,36,-1.9,0.2
4.7,36,-2.2,-0.8
4.7,36,-2.8,-2.2
4.7,36,-3.8,-4
4.7,36,-5.1,-6.3
4.7,36,-6.8,-8.9
4.7,36,-9,-12.1
4.7,36,-11.5,-15.8
4.7,36,-14.1,-19.8
4.7,36,-16.8,-24.2
4.7,36,-19.3,-28.8
4.7,37,-21.7,-33.4
4.7,37,-23.9,-37.9
4.7,37,-25.9,-42.2
4.7,37,-27.7,-46.2
4.8,37,-29.3,-49.6
4.8,37,-30.6,-52.4
4.8,37,-31.6,-54.5
4.8,37,-32.3,-55.9
4.8,37,-32.6,-56.5
4.8,37,-32.7,-56.4
4.8,37,-32.5,-55.8
4.8,37,-32.2,-54.7
4.8,37,-31.7,-53
4.8,37,-31.1,-51
4.8,37,-30.2,-48.6
4.8,37,-29.3,-45.9
4.8,37,-28.2,-43
4.8,37,-27.2,-39.9
4.8,37,-26.1,-36.8
4.8,37,-24.9,-33.7
4.8,37,-23.7,-30.6
4.8,37,-22.2,-27.5
4.8,37,-20.4,-24.4
4.8,37,-18.3,-21.3
4.8,37,-15.7,-18.1
4.8,37,-12.8,-14.7
4.8,37,-9.5,-11.1
4.8,37,-6.1,-7.4
4.8,37,-2.7,-3.5
4.9,37,0.6,0.4
4.9,37,3.6,4.3
4.9,37,6.3,8.1
4.9,38,8.7,11.8
4.9,38,11,15.4
4.9,38,13,19
4.9,38,15,22.5
4.9,38,17,25.8
4.9,38,19,29
4.9,38,21,32.1
4.9,38,23,35
4.9,38,24.7,37.8
4.9,38,26.2,40.4
4.9,38,27.4,42.8
4.9,38,28.3,44.9
4.9,38,29,46.8
4.9,38,29.7,48.4
4.9,38,30.3,49.8
4.9,38,30.8,50.9
4.9,38,31.3,51.7
4.9,38,31.6,52.2
4.9,38,31.8,52.5
4.9,38,31.7,52.6
4.9,38,31.4,52.4
4.9,38,30.9,52.1
5,38,30.3,51.7
5,38,29.6,51.3
5,38,29,50.9
5,38,28.5,50.4
5,38,28.1,50
5,38,27.7,49.7
5,38,27.4,49.3
5,38,27.2,49
5,38,27,48.7
5,38,26.7,48.4
5,39,26.2,48.1
5,39,25.7,47.8
5,39,25,47.4
5,39,24.3,47
5,39,23.5,46.6
5,39,22.8,46.1
5,39,22.2,45.5
5,39,21.6,44.8
5,39,21.2,44
5,39,20.7,43.1
5,39,20.2,42.2
5,39,19.8,41.1
5,39,19.4,39.9
5,39,19.1,38.6
5,39,18.9,37.2
5.1,39,18.7,35.9
5.1,39,18.4,34.7
5.1,39,18.2,33.6
5.1,39,17.9,32.7
5.1,39,17.7,31.9
5.1,39,17.5,31.1
5.1,39,17.4,30.3
5.1,39,17.3,29.5
5.1,39,17.3,28.8
5.1,39,17.3,28.1
5.1,39,17.4,27.6
5.1,39,17.4,27.2
5.1,39,17.4,27
5.1,39,17.4,26.8
5.1,39,17.2,26.6
5.1,39,16.9,26.5
5.1,39,16.5,26.5
5.1,40,16,26.5
5.1,40,15.4,26.7
5.1,40,14.9,26.9
5.1,40,14.3,27.1
5.1,40,13.8,27.2
5.1,40,13.4,27.2
5.1,40,13.1,27.1
5.1,40,13,26.8
5.2,40,13,26.4
5.2,40,13.1,25.8
5.2,40,13.5,25.2
5.2,40,14,24.4
5.2,40,14.8,23.6
5.2,40,15.5,22.8
5.2,40,16.3,21.9
5.2,40,17,20.9
5.2,40,17.4,19.9
5.2,40,17.7,18.9
5.2,40,17.7,17.9
5.2,40,17.5,16.9
5.2,40,16.9,16
5.2,40,16.1,15.1
5.2,40,14.8,14.4
5.2,40,13.1,13.6
5.2,40,10.8,12.7
5.2,40,8.2,11.6
5.2,40,5.2,10.3
5.2,40,1.9,8.8
5.2,40,-1.4,7
5.2,40,-4.6,5.1
5.2,40,-7.6,2.9
5.2,40,-10.2,0.5
5.2,41,-12.5,-2.1
5.3,41,-14.3,-5
5.3,41,-15.7,-8
5.3,41,-16.8,-11.2
5.3,41,-17.5,-14.4
5.3,41,-17.9,-17.6
5.3,41,-17.9,-20.5
5.3,41,-17.7,-23.3
5.3,41,-17.3,-25.9
5.3,41,-16.8,-28.3
5.3,41,-16.2,-30.5
5.3,41,-15.7,-32.4
5.3,41,-15.4,-34.1
5.3,41,-15.1,-35.6
5.3,41,-15,-36.9
5.3,41,-15,-38
5.3,41,-15.2,-38.8
5.3,41,-15.4,-39.5
5.3,41,-15.6,-40
5.3,41,-15.9,-40.3
5.3,41,-16.1,-40.5
5.3,41,-16.5,-40.6
5.3,41,-16.8,-40.8
5.3,41,-17.2,-40.9
5.3,41,-17.6,-41.2
5.3,41,-17.9,-41.5
5.4,41,-18.2,-42.1
5.4,41,-18.4,-42.7
5.4,41,-18.6,-43.6
5.4,41,-18.8,-44.5
5.4,41,-19,-45.5
5.4,41,-19.1,-46.6
5.4,42,-19.2,-47.7
5.4,42,-19.4,-48.7
5.4,42,-19.5,-49.8
5.4,42,-19.8,-50.7
5.4,42,-20.3,-51.5
5.4,42,-20.9,-52.1
5.4,42,-21.7,-52.7
5.4,42,-22.5,-53
5.4,42,-23.4,-53.3
5.4,42,-24.2,-53.5
5.4,42,-24.7,-53.5
5.4,42,-24.9,-53.5
5.4,42,-24.8,-53.5
5.4,42,-24.3,-53.4
5.4,42,-23.6,-53.3
5.4,42,-22.9,-53.3
5.4,42,-22.1,-53.3
5.4,42,-21.4,-53.3
5.4,42,-20.6,-53.3
5.5,42,-19.8,-53.3
5.5,42,-18.9,-53.2
5.5,42,-17.8,-52.9
5.5,42,-16.7,-52.4
5.5,42,-15.6,-51.8
5.5,42,-14.6,-51.1
5.5,42,-13.8,-50.2
5.5,42,-13.3,-49.1
5.5,42,-13,-47.8
5.5,42,-13,-46.4
5.5,42,-13,-44.8
5.5,42,-13.1,-43.2
5.5,42,-13.1,-41.3
5.5,43,-12.8,-39.4
5.5,43,-12.5,-37.4
5.5,43,-12,-35.4
5.5,43,-11.4,-33.5
5.5,43,-10.8,-31.8
5.5,43,-10.3,-30.1
5.5,43,-9.8,-28.6
5.5,43,-9.5,-27.1
5.5,43,-9.4,-25.6
5.5,43,-9.4,-24.2
5.5,43,-9.7,-22.9
5.5,43,-10,-21.6
5.6,43,-10.4,-20.4
5.6,43,-10.8,-19
5.6,43,-11,-17.7
5.6,43,-11.1,-16.4
5.6,43,-11.1,-15.1
5.6,43,-11,-13.7
5.6,43,-10.7,-12.3
5.6,43,-10.4,-10.8
5.6,43,-10,-9.2
5.6,43,-9.5,-7.5
5.6,43,-9.1,-5.9
5.6,43,-8.7,-4.2
5.6,43,-8.3,-2.4
5.6,43,-7.8,-0.7
5.6,43,-7.4,1.1
5.6,43,-7,2.7
5.6,43,-6.6,4.1
5.6,43,-6.2,5.3
5.6,43,-5.8,6.4
5.6,43,-5.4,7.2
5.6,44,-5.2,7.9
5.6,44,-5,8.4
5.6,44,-5,8.8
5.6,44,-5,9.1
5.6,44,-5.1,9.3
5.7,44,-5.3,9.5
5.7,44,-5.5,9.6
5.7,44,-5.7,9.7
5.7,44,-5.9,9.7
5.7,44,-6.1,9.7
5.7,44,-6.3,9.6
5.7,44,-6.5,9.6
5.7,44,-6.6,9.6
5.7,44,-6.6,9.6
5.7,44,-6.3,9.8
5.7,44,-5.9,10.2
5.7,44,-5.3,10.7
5.7,44,-4.6,11.2
5.7,44,-3.8,11.8
5.7,44,-3,12.3
5.7,44,-2.1,12.8
5.7,44,-1.2,13.3
5.7,44,-0.4,13.8
5.7,44,0.4,14.3
5.7,44,1.1,14.8
5.7,44,1.6,15.2
5.7,44,2,15.5
5.7,44,2.2,15.5
5.7,44,2.2,15.2
5.7,44,2,14.6
5.8,44,1.7,13.9
5.8,44,1.3,13
5.8,45,0.7,12
5.8,45,0.1,11
5.8,45,-0.5,10
5.8,45,-1.2,9.2
5.8,45,-1.9,8.5
5.8,45,-2.4,7.9
5.8,45,-2.7,7.5
5.8,45,-2.6,7.3
5.8,45,-2.1,7.4
5.8,45,-1.2,7.7
5.8,45,0.1,8
5.8,45,1.6,8.5
5.8,45,3.3,9.1
5.8,45,5,9.7
5.8,45,6.6,10.4
5.8,45,8,11
5.8,45,9.3,11.7
5.8,45,10.4,12.4
5.8,45,11.2,13.1
5.8,45,11.7,13.7
5.8,45,12,14.1
5.8,45,12.1,14.5
5.8,45,11.9,14.6
5.9,45,11.5,14.6
5.9,45,11,14.4
5.9,45,10.3,14
5.9,45,9.6,13.6
5.9,45,8.8,13.1
5.9,45,8,12.6
5.9,45,7.3,12.1
5.9,45,6.7,11.9
5.9,45,6.2,11.7
5.9,46,5.9,11.8
5.9,46,5.7,12.1
5.9,46,5.6,12.4
5.9,46,5.7,12.9
5.9,46,5.7,13.3
5.9,46,5.7,13.8
5.9,46,5.7,14.1
5.9,46,5.6,14.4
5.9,46,5.4,14.7
5.9,46,5.2,14.9
5.9,46,5,15
5.9,46,4.7,15.1
5.9,46,4.3,15
5.9,46,3.9,14.9
5.9,46,3.6,14.7
5.9,46,3.3,14.4
6,46,3.1,14.2
6,46,2.9,14
6,46,2.7,13.9
6,46,2.5,14
6,46,2.3,14.1
6,46,2.2,14.4
6,46,2,14.7
6,46,1.8,15
6,46,1.7,15.3
6,46,1.6,15.5
6,46,1.6,15.7
6,46,1.8,15.8
6,46,2.1,15.9
6,46,2.5,16.1
6,46,3.1,16.1
6,46,3.7,16
6,47,4.3,15.7
6,47,4.9,15.1
6,47,5.4,14.4
6,47,5.7,13.4
6,47,5.9,12.4
6,47,5.9,11.4
6,47,5.6,10.4
6,47,5.1,9.5
6,47,4.4,8.6
6.1,47,3.5,7.9
6.1,47,2.6,7.3
6.1,47,1.6,6.9
6.1,47,0.6,6.6
6.1,47,-0.3,6.4
6.1,47,-1,6.3
6.1,47,-1.5,6.4
6.1,47,-1.8,6.6
6.1,47,-1.9,6.8
6.1,47,-1.8,7.1
6.1,47,-1.7,7.3
6.1,47,-1.5,7.6
6.1,47,-1.3,7.8
6.1,47,-1.1,8
6.1,47,-0.8,8
6.1,47,-0.4,8
6.1,47,0,7.8
6.1,47,0.5,7.6
6.1,47,1,7.3
6.1,47,1.5,6.8
6.1,47,2.1,6.3
6.1,47,2.5,5.5
6.1,47,3,4.7
6.1,48,3.3,3.8
6.1,48,3.7,3
6.2,48,3.9,2.2
6.2,48,4.1,1.6
6.2,48,4.2,1.2
6.2,48,4.2,0.8
6.2,48,4.1,0.6
6.2,48,3.9,0.4
6.2,48,3.7,0.4
6.2,48,3.5,0.4
6.2,48,3.3,0.4
6.2,48,3,0.5
6.2,48,2.7,0.5
6.2,48,2.4,0.5
6.2,48,1.9,0.4
6.2,48,1.4,0.3
6.2,48,0.8,0.1
6.2,48,0.2,0
6.2,48,-0.4,-0.2
6.2,48,-0.9,-0.3
6.2,48,-1.4,-0.5
6.2,48,-1.8,-0.8
6.2,48,-2.1,-1.1
6.2,48,-2.4,-1.5
6.2,48,-2.4,-1.9
6.2,48,-2.4,-2.3
6.2,48,-2.2,-2.5
6.3,48,-2,-2.6
6.3,48,-1.7,-2.6
6.3,48,-1.4,-2.5
6.3,48,-1.2,-2.4
6.3,48,-1.1,-2.2
6.3,49,-1,-2
6.3,49,-0.9,-1.8
6.3,49,-0.8,-1.6
6.3,49,-0.5,-1.4
6.3,49,-0.1,-1.1
6.3,49,0.4,-0.9
6.3,49,1,-0.6
6.3,49,1.6,-0.4
6.3,49,2.1,-0.3
6.3,49,2.7,-0.3
6.3,49,3.2,-0.3
6.3,49,3.7,-0.5
6.3,49,4.1,-0.7
6.3,49,4.5,-1
6.3,49,4.8,-1.3
6.3,49,5,-1.8
6.3,49,5.1,-2.3
6.3,49,5.2,-2.8
6.3,49,5.2,-3.2
6.3,49,5.2,-3.5
6.4,49,5.2,-3.8
6.4,49,5,-3.9
6.4,49,4.9,-3.9
6.4,49,4.9,-3.8
6.4,49,4.8,-3.4
6.4,49,4.8,-3
6.4,49,4.9,-2.4
6.4,49,5,-1.8
6.4,49,5.1,-1.2
6.4,49,5.2,-0.8
6.4,49,5.3,-0.4
6.4,49,5.2,-0.1
6.4,50,5.1,0.1
6.4,50,4.8,0.2
6.4,50,4.4,0.1
6.4,50,3.9,-0.1
6.4,50,3.2,-0.4
6.4,50,2.6,-0.9
6.4,50,2,-1.5
6.4,50,1.5,-2.1
6.4,50,1,-2.8
6.4,50,0.7,-3.4
6.4,50,0.5,-4
6.4,50,0.3,-4.6
6.4,50,0.2,-5.1
6.5,50,0.2,-5.5
6.5,50,0.3,-5.8
6.5,50,0.6,-5.9
6.5,50,1,-5.8
6.5,50,1.4,-5.6
6.5,50,1.9,-5.3
6.5,50,2.2,-5
6.5,50,2.4,-4.8
6.5,50,2.5,-4.5
6.5,50,2.5,-4.2
6.5,50,2.5,-3.8
6.5,50,2.3,-3.4
6.5,50,2.2,-2.8
6.5,50,2.1,-2.2
6.5,50,1.9,-1.6
6.5,50,1.7,-1.1
6.5,50,1.3,-0.6
6.5,50,0.8,-0.2
6.5,50,0.1,0
6.5,51,-0.6,0.1
6.5,51,-1.4,0.2
6.5,51,-2.2,0.2
6.5,51,-2.9,0.1
6.5,51,-3.6,0.1
6.5,51,-4.1,0.1
6.6,51,-4.5,0
6.6,51,-4.7,0
6.6,51,-4.8,0
6.6,51,-4.8,0.1
6.6,51,-4.7,0.3
6.6,51,-4.5,0.5
6.6,51,-4.2,0.8
6.6,51,-3.8,1.2
6.6,51,-3.4,1.6
6.6,51,-2.9,2
6.6,51,-2.4,2.4
6.6,51,-1.9,2.6
6.6,51,-1.3,2.6
6.6,51,-0.8,2.6
6.6,51,-0.3,2.5
6.6,51,0.1,2.4
6.6,51,0.5,2.1
6.6,51,0.8,1.8
6.6,51,1.1,1.4
6.6,51,1.3,1.1
6.6,51,1.4,0.8
6.6,51,1.5,0.5
6.6,51,1.6,0.2
6.6,51,1.8,-0.1
6.6,51,2,-0.4
6.7,51,2.2,-0.7
6.7,52,2.4,-1
6.7,52,2.5,-1.2
6.7,52,2.4,-1.4
6.7,52,2.1,-1.5
6.7,52,1.3,-1.6
6.7,52,0.2,-1.9
6.7,52,-1.4,-2.3
6.7,52,-3.4,-3.1
6.7,52,-5.8,-4.1
6.7,52,-8.6,-5.5
6.7,52,-11.6,-7.3
6.7,52,-14.9,-9.3
6.7,52,-18.3,-11.5
6.7,52,-21.5,-13.9
6.7,52,-24.6,-16.3
6.7,52,-27.3,-18.6
6.7,52,-29.6,-20.8
6.7,52,-31.4,-22.9
6.7,52,-32.6,-24.8
6.7,52,-33.3,-26.6
6.7,52,-33.4,-28.3
6.7,52,-33.2,-29.8
6.7,52,-32.6,-31.1
6.7,52,-31.8,-32.2
6.8,52,-30.9,-32.9
6.8,52,-29.8,-33.3
6.8,52,-28.6,-33.4
6.8,52,-27.3,-33.1
6.8,52,-25.9,-32.7
6.8,52,-24.4,-32
6.8,52,-22.7,-31.2
6.8,52,-21,-30.3
6.8,53,-19.3,-29.4
6.8,53,-17.7,-28.5
6.8,53,-16.1,-27.8
6.8,53,-14.4,-27.1
6.8,53,-12.7,-26.6
6.8,53,-10.9,-26.3
6.8,53,-8.9,-26
6.8,53,-6.8,-25.9
6.8,53,-4.7,-25.9
6.8,53,-2.6,-25.9
6.8,53,-0.6,-26
6.8,53,1.3,-26.2
6.8,53,3.2,-26.2
6.8,53,5,-26.1
6.8,53,6.7,-25.8
6.8,53,8.4,-25.4
6.8,53,9.8,-24.9
6.9,53,10.9,-24.1
6.9,53,11.8,-23
6.9,53,12.5,-21.5
6.9,53,13.1,-19.5
6.9,53,13.7,-17
6.9,53,14.4,-14
6.9,53,15.1,-10.4
6.9,53,15.8,-6.2
6.9,53,16.6,-1.3
6.9,53,17.5,4.3
6.9,53,18.5,10.6
6.9,53,19.7,17.5
6.9,53,21.2,25
6.9,53,23.2,33.1
6.9,53,25.6,41.5
6.9,54,28.4,50.2
6.9,54,31.5,59
6.9,54,34.9,67.7
6.9,54,38.4,76.4
6.9,54,42,85
6.9,54,45.6,93.3
6.9,54,49,101.4
6.9,54,52.1,109.2
6.9,54,54.9,116.6
6.9,54,57.4,123.5
7,54,59.7,130
7,54,61.7,135.9
7,54,63.5,141.2
7,54,65,145.7
7,54,66.2,149.4
7,54,67.1,152.1
7,54,67.6,153.7
7,54,67.9,154.3
7,54,67.7,153.7
7,54,67.2,152.1
7,54,66.3,149.4
7,54,64.9,145.8
7,54,63.2,141.4
7,54,61.1,136.4
7,54,58.8,130.9
7,54,56.3,124.9
7,54,53.6,118.6
7,54,50.8,112.1
7,54,48,105.4
7,54,45.2,98.8
7,54,42.5,92.2
7,54,39.8,85.8
7,55,37.2,79.5
7,55,34.6,73.4
7,55,32.2,67.6
7.1,55,29.9,61.9
7.1,55,27.7,56.5
7.1,55,25.6,51.2
7.1,55,23.6,46
7.1,55,21.7,40.9
7.1,55,19.8,35.8
7.1,55,17.9,30.7
7.1,55,16,25.6
7.1,55,14.2,20.5
7.1,55,12.2,15.3
7.1,55,10.2,10
7.1,55,8.1,4.5
7.1,55,5.7,-1.2
7.1,55,3.1,-7.1
7.1,55,0.2,-13.1
7.1,55,-2.9,-19.3
7.1,55,-6.1,-25.6
7.1,55,-9.4,-31.7
7.1,55,-12.5,-37.7
7.1,55,-15.5,-43.3
7.1,55,-18.2,-48.7
7.1,55,-20.7,-53.7
7.1,55,-22.9,-58.3
7.1,55,-24.9,-62.6
7.1,55,-26.8,-66.7
7.2,55,-28.4,-70.6
7.2,55,-29.9,-74.2
7.2,55,-31.3,-77.7
7.2,55,-32.6,-80.9
7.2,56,-33.9,-84.1
7.2,56,-35.1,-87.1
7.2,56,-36.3,-90
7.2,56,-37.4,-92.7
7.2,56,-38.1,-95
7.2,56,-38.4,-97
7.2,56,-38.1,-98.6
7.2,56,-37.2,-99.7
7.2,56,-35.7,-100.5
7.2,56,-33.6,-100.9
7.2,56,-31,-100.9
7.2,56,-28,-100.6
7.2,56,-24.8,-100
7.2,56,-21.6,-99.2
7.2,56,-18.5,-98.2
7.2,56,-15.8,-97.2
7.2,56,-13.5,-96
7.2,56,-11.9,-94.8
7.2,56,-10.9,-93.7
7.2,56,-10.7,-92.6
7.2,56,-11.2,-91.6
7.3,56,-12.3,-90.7
7.3,56,-14,-89.9
7.3,56,-16.1,-89.2
7.3,56,-18.5,-88.5
7.3,56,-21,-87.8
7.3,56,-23.5,-87.2
7.3,56,-26,-86.5
7.3,56,-28.3,-85.8
7.3,56,-30.3,-85.2
7.3,56,-32.1,-84.5
7.3,56,-33.5,-83.8
7.3,57,-34.7,-83
7.3,57,-35.6,-82.3
7.3,57,-36.4,-81.5
7.3,57,-37,-80.8
7.3,57,-37.4,-80
7.3,57,-37.7,-79.2
7.3,57,-37.8,-78.4
7.3,57,-37.7,-77.5
7.3,57,-37.5,-76.7
7.3,57,-37.1,-75.7
7.3,57,-36.5,-74.8
7.3,57,-35.9,-73.7
7.3,57,-35.3,-72.6
7.3,57,-34.7,-71.4
7.4,57,-34.2,-70.1
7.4,57,-33.8,-68.7
7.4,57,-33.5,-67.3
7.4,57,-33.3,-65.7
7.4,57,-33.3,-64
7.4,57,-33.3,-62.2
7.4,57,-33.3,-60.3
7.4,57,-33.4,-58.4
7.4,57,-33.5,-56.3
7.4,57,-33.6,-54.2
7.4,57,-33.8,-51.9
7.4,57,-33.9,-49.6
7.4,57,-34,-47.2
7.4,57,-34,-44.8
7.4,57,-34,-42.3
7.4,57,-33.9,-39.9
7.4,57,-33.7,-37.5
7.4,57,-33.5,-35
7.4,58,-33.2,-32.7
7.4,58,-32.9,-30.3
7.4,58,-32.4,-28.1
7.4,58,-31.8,-25.8
7.4,58,-31.2,-23.7
7.4,58,-30.5,-21.7
7.4,58,-29.7,-19.7
7.5,58,-28.8,-17.8
7.5,58,-27.9,-16
7.5,58,-26.9,-14.2
7.5,58,-26,-12.5
7.5,58,-25.2,-10.8
7.5,58,-24.3,-9.2
7.5,58,-23.4,-7.5
7.5,58,-22.4,-5.7
7.5,58,-21.4,-3.9
7.5,58,-20.3,-2.1
7.5,58,-19.1,-0.2
7.5,58,-17.8,1.6
7.5,58,-16.6,3.4
7.5,58,-15.4,5.1
7.5,58,-14.2,6.7
7.5,58,-13.1,8.3
7.5,58,-12.2,9.8
7.5,58,-11.3,11.2
7.5,58,-10.5,12.5
7.5,58,-9.7,13.8
7.5,58,-8.9,15.2
7.5,58,-8,16.6
7.5,58,-7,18.1
7.5,58,-6,19.8
7.5,58,-5.1,21.4
7.6,59,-4.1,23.2
7.6,59,-3.3,24.8
7.6,59,-2.6,26.4
7.6,59,-2,27.9
7.6,59,-1.5,29.3
7.6,59,-1.1,30.5
7.6,59,-0.7,31.7
7.6,59,-0.1,32.7
7.6,59,0.5,33.7
7.6,59,1.3,34.7
7.6,59,2.2,35.6
7.6,59,3.1,36.3
7.6,59,4.1,37
7.6,59,5.1,37.6
7.6,59,6.1,38
7.6,59,7.1,38.4
7.6,59,8.1,38.7
7.6,59,9.1,38.9
7.6,59,10.1,39.2
7.6,59,11.1,39.5
7.6,59,12,39.9
7.6,59,12.9,40.4
7.6,59,13.6,40.9
7.6,59,14.2,41.5
7.6,59,14.7,42.1
7.7,59,15.1,42.7
7.7,59,15.5,43.4
7.7,59,15.9,44.1
7.7,59,16.2,44.8
7.7,59,16.6,45.5
7.7,59,16.9,46.1
7.7,59,17.3,46.7
7.7,60,17.6,47.3
7.7,60,17.9,47.9
7.7,60,18.1,48.4
7.7,60,18.3,48.9
7.7,60,18.6,49.3
7.7,60,18.9,49.7
7.7,60,19.3,50
7.7,60,19.6,50.2
7.7,60,20,50.2
7.7,60,20.4,50
7.7,60,20.8,49.5
7.7,60,21.1,48.9
7.7,60,21.4,48.1
7.7,60,21.8,47.3
7.7,60,22.1,46.4
7.7,60,22.5,45.5
7.7,60,22.8,44.7
7.7,60,23,43.9
7.8,60,23,43
7.8,60,23,42.2
7.8,60,22.8,41.5
7.8,60,22.5,40.8
7.8,60,22.2,40.3
7.8,60,22,39.8
7.8,60,21.8,39.3
7.8,60,21.7,39
7.8,60,21.5,38.6
7.8,60,21.4,38.3
7.8,60,21.1,38.1
7.8,60,20.9,37.9
7.8,60,20.6,37.7
7.8,60,20.3,37.5
7.8,61,20.1,37.4
7.8,61,19.9,37.2
7.8,61,19.9,37.2
7.8,61,20.1,37.2
7.8,61,20.5,37.2
7.8,61,21,37.2
7.8,61,21.7,37.2
7.8,61,22.4,37.2
7.8,61,23.1,37.1
7.8,61,23.7,36.9
7.8,61,24.2,36.6
7.9,61,24.6,36.2
7.9,61,24.8,35.7
7.9,61,24.8,35.1
7.9,61,24.6,34.2
7.9,61,24.1,33.2
7.9,61,23.4,32
7.9,61,22.5,30.6
7.9,61,21.4,29.2
7.9,61,20.3,27.7
7.9,61,19.1,26.3
7.9,61,18.1,24.8
7.9,61,17.2,23.5
7.9,61,16.3,22.1
7.9,61,15.6,20.8
7.9,61,14.9,19.4
7.9,61,14.2,18.2
7.9,61,13.6,16.9
7.9,61,13,15.7
7.9,61,12.6,14.7
7.9,61,12.3,13.8
7.9,61,12.1,13.1
7.9,62,12,12.4
7.9,62,12,11.8
7.9,62,12,11.3
7.9,62,11.9,10.8
8,62,11.7,10.4
8,62,11.3,9.9
8,62,10.8,9.5
8,62,10.1,9.1
8,62,9.2,8.6
8,62,8.2,8
8,62,7,7.5
8,62,5.7,6.9
8,62,4.6,6.3
8,62,3.6,5.7
8,62,2.8,5.1
8,62,2.3,4.6
8,62,2,4.2
8,62,2,3.7
8,62,2.2,3.3
8,62,2.6,2.9
8,62,3.1,2.5
8,62,3.8,2
8,62,4.5,1.5
8,62,5.2,0.9
8,62,5.9,0.4
8,62,6.6,-0.2
8,62,7.2,-0.7
8,62,7.8,-1.2
8,62,8.3,-1.6
8.1,62,8.6,-1.9
8.1,62,8.8,-2.2
8.1,62,8.7,-2.5
8.1,63,8.5,-2.8
8.1,63,8,-3.1
8.1,63,7.5,-3.4
8.1,63,6.9,-3.8
8.1,63,6.1,-4.2
8.1,63,5.3,-4.7
8.1,63,4.4,-5.2
8.1,63,3.4,-5.8
8.1,63,2.4,-6.4
8.1,63,1.4,-7.1
8.1,63,0.5,-7.8
8.1,63,-0.4,-8.5
8.1,63,-1.3,-9.3
8.1,63,-2.3,-10.1
8.1,63,-3.4,-10.9
8.1,63,-4.6,-11.9
8.1,63,-5.9,-13.1
8.1,63,-7.1,-14.5
8.1,63,-8.1,-16.2
8.1,63,-8.9,-18
8.1,63,-9.5,-20.1
8.1,63,-10.2,-22.6
8.2,63,-11,-25.6
8.2,63,-12.1,-29.2
8.2,63,-13.3,-33.6
8.2,63,-14.8,-38.6
8.2,63,-16.3,-44.2
8.2,63,-17.8,-50.5
8.2,63,-19.5,-57.5
8.2,63,-21.4,-65
8.2,63,-23.5,-73.3
8.2,63,-25.8,-82
8.2,64,-28.2,-91.3
8.2,64,-30.6,-100.8
8.2,64,-32.9,-110.5
8.2,64,-35.2,-120
8.2,64,-37.3,-129.2
8.2,64,-39.2,-137.7
8.2,64,-41,-145.3
8.2,64,-42.5,-151.6
8.2,64,-43.7,-156.4
8.2,64,-44.3,-159.4
8.2,64,-44.3,-160.5
8.2,64,-43.6,-159.6
8.2,64,-42.3,-156.8
8.2,64,-40.6,-152.1
8.2,64,-38.5,-145.9
8.3,64,-36,-138.2
8.3,64,-33.3,-129.3
8.3,64,-30.3,-119.4
8.3,64,-27,-108.7
8.3,64,-23.5,-97.5
8.3,64,-19.8,-86
8.3,64,-16,-74.4
8.3,64,-12.1,-63
8.3,64,-8.4,-51.9
8.3,64,-4.9,-41.2
8.3,64,-1.6,-30.9
8.3,64,1.5,-21.1
8.3,64,4.3,-11.7
8.3,64,6.9,-2.7
8.3,64,9.4,5.8
8.3,64,11.7,13.9
8.3,64,13.9,21.6
8.3,65,16.2,28.9
8.3,65,18.4,36
8.3,65,20.6,43
8.3,65,22.8,49.7
8.3,65,24.9,56.2
8.3,65,26.9,62.4
8.3,65,28.6,68.4
8.3,65,30.1,74
8.4,65,31.2,79.4
8.4,65,32.1,84.5
8.4,65,32.8,89.3
8.4,65,33.3,93.9
8.4,65,33.8,98.3
8.4,65,34.1,102.4
8.4,65,34.6,106.2
8.4,65,35.1,109.8
8.4,65,35.6,113
8.4,65,36.1,115.8
8.4,65,36.6,118.3
8.4,65,37,120.3
8.4,65,37.4,122.1
8.4,65,37.7,123.5
8.4,65,38,124.6
8.4,65,38.1,125.4
8.4,65,38.1,125.8
8.4,65,37.8,125.9
8.4,65,37.3,125.5
8.4,65,36.6,124.9
8.4,65,35.8,124.1
8.4,65,34.9,123.2
8.4,65,33.8,122.2
8.4,65,32.6,121.1
8.4,66,31.3,119.8
8.5,66,30,118.4
8.5,66,28.7,117
8.5,66,27.3,115.4
8.5,66,25.9,113.6
8.5,66,24.3,111.4
8.5,66,22.6,108.9
8.5,66,20.7,106
8.5,66,18.7,102.9
8.5,66,16.7,99.7
8.5,66,14.7,96.3
8.5,66,12.8,93
8.5,66,11,89.6
8.5,66,9.5,86.3
8.5,66,8.1,82.9
8.5,66,6.9,79.6
8.5,66,5.9,76.3
8.5,66,5,73.1
8.5,66,4.2,69.9
8.5,66,3.5,66.7
8.5,66,2.8,63.6
8.5,66,2.1,60.5
8.5,66,1.3,57.6
8.5,66,0.5,54.7
8.5,66,-0.4,52
8.5,66,-1.3,49.4
8.6,66,-2.4,46.9
8.6,66,-3.7,44.4
8.6,66,-5.2,41.8
8.6,66,-6.9,39.1
8.6,66,-8.6,36.3
8.6,66,-10.3,33.3
8.6,67,-11.9,30.2
8.6,67,-13.4,27
8.6,67,-14.8,23.7
8.6,67,-16.1,20.3
8.6,67,-17.3,16.9
8.6,67,-18.5,13.5
8.6,67,-19.7,10.3
8.6,67,-20.8,7.2
8.6,67,-21.9,4.3
8.6,67,-22.8,1.7
8.6,67,-23.6,-0.7
8.6,67,-24.2,-2.9
8.6,67,-24.7,-5
8.6,67,-25.1,-7
8.6,67,-25.3,-9.1
8.6,67,-25.5,-11.1
8.6,67,-25.6,-13.1
8.6,67,-25.7,-15.2
8.6,67,-25.9,-17.4
8.7,67,-26.3,-19.6
8.7,67,-26.7,-21.7
8.7,67,-27.2,-23.9
8.7,67,-27.7,-25.9
8.7,67,-28.1,-27.8
8.7,67,-28.4,-29.5
8.7,67,-28.4,-31
8.7,67,-28.1,-32.4
8.7,67,-27.5,-33.7
8.7,67,-26.6,-34.8
8.7,67,-25.5,-36
8.7,67,-24.5,-37.2
8.7,67,-23.7,-38.5
8.7,68,-23.2,-39.8
8.7,68,-22.9,-41.2
8.7,68,-22.8,-42.6
8.7,68,-22.9,-43.9
8.7,68,-23,-45.2
8.7,68,-23.1,-46.5
8.7,68,-23.3,-47.8
8.7,68,-23.5,-49.2
8.7,68,-23.8,-50.7
8.7,68,-24.2,-52.1
8.7,68,-24.6,-53.6
8.7,68,-24.9,-55
8.8,68,-25,-56.5
8.8,68,-24.9,-58
8.8,68,-24.6,-59.5
8.8,68,-24,-60.9
8.8,68,-23.2,-62.3
8.8,68,-22.3,-63.7
8.8,68,-21.5,-65.1
8.8,68,-20.7,-66.3
8.8,68,-19.9,-67.6
8.8,68,-19.3,-68.7
8.8,68,-18.7,-69.7
8.8,68,-18.2,-70.5
8.8,68,-17.8,-71.1
8.8,68,-17.5,-71.6
8.8,68,-17.1,-72
8.8,68,-16.7,-72.3
8.8,68,-16.3,-72.6
8.8,68,-15.8,-72.8
8.8,68,-15.1,-72.8
8.8,68,-14.2,-72.4
8.8,69,-13,-71.8
8.8,69,-11.7,-70.8
8.8,69,-10.3,-69.7
8.8,69,-8.9,-68.4
8.8,69,-7.4,-67.2
8.9,69,-5.9,-66
8.9,69,-4.4,-65
8.9,69,-3,-64
8.9,69,-1.9,-63.1
8.9,69,-1.1,-62.2
8.9,69,-0.5,-61.3
8.9,69,-0.2,-60.3
8.9,69,-0.1,-59.4
8.9,69,0,-58.4
8.9,69,-0.1,-57.3
8.9,69,-0.1,-56.1
8.9,69,0.1,-55
8.9,69,0.4,-53.7
8.9,69,0.9,-52.4
8.9,69,1.7,-51.1
8.9,69,2.6,-49.7
8.9,69,3.7,-48.4
8.9,69,4.8,-47.4
8.9,69,5.7,-46.5
8.9,69,6.2,-45.9
8.9,69,6.4,-45.4
8.9,69,6.4,-45
8.9,69,6.1,-44.7
8.9,69,5.8,-44.3
8.9,69,5.3,-44
9,69,4.9,-43.5
9,69,4.5,-42.7
9,70,4.1,-41.7
9,70,4,-40.3
9,70,4.1,-38.5
9,70,4.5,-36.4
9,70,5.1,-33.9
9,70,6,-31.3
9,70,7.1,-28.6
9,70,8.2,-26
9,70,9.4,-23.5
9,70,10.6,-21
9,70,11.7,-18.7
9,70,12.7,-16.7
9,70,13.4,-15
9,70,13.8,-13.6
9,70,13.9,-12.4
9,70,13.8,-11.5
9,70,13.6,-10.8
9,70,13.3,-10.4
9,70,12.9,-10.2
9,70,12.5,-10.2
9,70,12,-10.3
9,70,11.4,-10.5
9,70,11,-10.7
9.1,70,10.5,-11
9.1,70,10.1,-11.2
9.1,70,9.9,-11.4
9.1,70,9.8,-11.5
9.1,70,9.9,-11.3
9.1,70,10.2,-11.1
9.1,70,10.6,-10.6
9.1,70,11.2,-10.2
9.1,70,11.8,-9.6
9.1,71,12.4,-9
9.1,71,12.8,-8.3
9.1,71,13.2,-7.5
9.1,71,13.3,-6.7
9.1,71,13.3,-5.8
9.1,71,13.2,-4.8
9.1,71,13,-3.7
9.1,71,13,-2.3
9.1,71,13,-0.9
9.1,71,13.1,0.8
9.1,71,13.3,2.5
9.1,71,13.5,4.4
9.1,71,13.7,6.2
9.1,71,13.8,8.1
9.1,71,13.8,10
9.1,71,13.7,11.9
9.2,71,13.4,13.7
9.2,71,13,15.5
9.2,71,12.7,17.2
9.2,71,12.4,18.9
9.2,71,12.2,20.4
9.2,71,12.1,21.9
9.2,71,12.2,23.2
9.2,71,12.3,24.5
9.2,71,12.4,25.5
9.2,71,12.6,26.4
9.2,71,12.8,27.1
9.2,71,12.9,27.7
9.2,71,12.9,28
9.2,71,12.6,28
9.2,71,11.9,27.6
9.2,71,10.7,26.8
9.2,72,9.2,25.5
9.2,72,7.5,24
9.2,72,5.7,22.2
9.2,72,4.1,20.4
9.2,72,2.6,18.6
9.2,72,1.4,16.8
9.2,72,0.4,15.1
9.2,72,-0.4,13.2
9.2,72,-1.1,11.3
9.3,72,-1.9,9.3
9.3,72,-2.9,7.1
9.3,72,-4,5
9.3,72,-5.4,2.9
9.3,72,-6.8,1
9.3,72,-8.4,-0.7
9.3,72,-9.8,-1.9
9.3,72,-11.1,-2.8
9.3,72,-12.2,-3.3
9.3,72,-13,-3.3
9.3,72,-13.6,-3
9.3,72,-13.9,-2.3
9.3,72,-14,-1.2
9.3,72,-13.9,0.1
9.3,72,-13.4,1.6
9.3,72,-12.7,3.3
9.3,72,-11.6,5
9.3,72,-10.2,6.7
9.3,72,-8.5,8.5
9.3,72,-6.7,10.1
9.3,72,-4.9,11.6
9.3,72,-3.2,12.9
9.3,72,-1.8,14
9.3,73,-0.6,14.9
9.3,73,0.4,15.7
9.4,73,1,16.2
9.4,73,1.3,16.5
9.4,73,1.4,16.7
9.4,73,1.3,16.9
9.4,73,1.2,17.3
9.4,73,1.1,18
9.4,73,1.1,18.9
9.4,73,1.2,20.1
9.4,73,1.3,21.8
9.4,73,1.5,23.8
9.4,73,1.8,26.4
9.4,73,2,29.4
9.4,73,2.2,32.9
9.4,73,2.4,36.8
9.4,73,2.5,41.1
9.4,73,2.6,45.6
9.4,73,2.6,50.4
9.4,73,2.5,55.3
9.4,73,2.3,60.1
9.4,73,1.9,64.8
9.4,73,1.3,69.3
9.4,73,0.6,73.5
9.4,73,-0.2,77.4
9.4,73,-0.8,80.8
9.4,73,-1.3,83.7
9.5,73,-1.5,86.1
9.5,73,-1.5,88
9.5,73,-1.2,89.2
9.5,73,-0.6,89.7
9.5,73,0.1,89.6
9.5,74,0.9,88.8
9.5,74,1.8,87.3
9.5,74,2.7,85.2
9.5,74,3.7,82.7
9.5,74,4.8,79.9
9.5,74,5.7,76.7
9.5,74,6.6,73.3
9.5,74,7.3,69.8
9.5,74,7.9,66.2
9.5,74,8.2,62.4
9.5,74,8.5,58.6
9.5,74,8.6,54.9
9.5,74,8.5,51.1
9.5,74,8.4,47.4
9.5,74,8.2,43.7
9.5,74,7.9,40.2
9.5,74,7.5,36.7
9.5,74,7.1,33.2
9.5,74,6.6,29.7
9.5,74,6.1,26.2
9.6,74,5.5,22.6
9.6,74,4.9,18.9
9.6,74,4.2,15.2
9.6,74,3.5,11.5
9.6,74,2.8,7.7
9.6,74,2.1,3.8
9.6,74,1.3,-0.1
9.6,74,0.4,-4.2
9.6,74,-0.6,-8.4
9.6,74,-1.5,-12.8
9.6,74,-2.5,-17.3
9.6,74,-3.4,-21.9
9.6,75,-4.4,-26.6
9.6,75,-5.5,-31.4
9.6,75,-6.6,-36.2
9.6,75,-7.8,-41.1
9.6,75,-9.1,-46
9.6,75,-10.5,-50.8
9.6,75,-11.9,-55.5
9.6,75,-13.2,-59.9
9.6,75,-14.4,-64.3
9.6,75,-15.6,-68.4
9.6,75,-16.7,-72.4
9.6,75,-17.7,-76.1
9.6,75,-18.5,-79.7
9.7,75,-19.3,-83.1
9.7,75,-19.9,-86.2
9.7,75,-20.4,-89.1
9.7,75,-20.9,-91.7
9.7,75,-21.4,-94
9.7,75,-22,-95.9
9.7,75,-22.6,-97.7
9.7,75,-23.3,-99.2
9.7,75,-24.1,-100.6
9.7,75,-25.1,-102
9.7,75,-26.3,-103.3
9.7,75,-27.6,-104.5
9.7,75,-28.8,-105.5
9.7,75,-29.9,-106.3
9.7,75,-30.7,-106.9
9.7,75,-31.2,-107.1
9.7,75,-31.3,-107
9.7,75,-31,-106.5
9.7,75,-30.4,-105.6
9.7,76,-29.5,-104.4
9.7,76,-28.3,-102.7
9.7,76,-26.9,-100.7
9.7,76,-25.2,-98.4
9.7,76,-23.4,-95.9
9.7,76,-21.5,-93.3
9.8,76,-19.7,-90.6
9.8,76,-17.9,-88
9.8,76,-16.2,-85.4
9.8,76,-14.7,-82.9
9.8,76,-13.3,-80.4
9.8,76,-12.2,-78.1
9.8,76,-11.1,-75.7
9.8,76,-10.2,-73.4
9.8,76,-9.3,-71.2
9.8,76,-8.7,-69
9.8,76,-8.3,-66.9
9.8,76,-8.2,-65
9.8,76,-8.4,-63.1
9.8,76,-8.7,-61.4
9.8,76,-9.2,-59.8
9.8,76,-9.7,-58.2
9.8,76,-10.1,-56.6
9.8,76,-10.5,-55
9.8,76,-10.8,-53.4
9.8,76,-10.9,-51.7
9.8,76,-10.8,-49.9
9.8,76,-10.4,-48
9.8,76,-9.8,-46
9.8,76,-9.1,-44
9.8,76,-8.2,-41.8
9.9,76,-7.2,-39.5
9.9,77,-6.1,-37.1
9.9,77,-4.8,-34.4
9.9,77,-3.5,-31.6
9.9,77,-2.1,-28.6
9.9,77,-0.8,-25.5
9.9,77,0.6,-22.2
9.9,77,1.8,-19
9.9,77,2.9,-15.9
9.9,77,3.9,-12.9
9.9,77,4.8,-10.1
9.9,77,5.6,-7.5
9.9,77,6.3,-5.1
9.9,77,6.9,-2.8
9.9,77,7.6,-0.5
9.9,77,8.3,1.6
9.9,77,9,3.8
9.9,77,9.7,6
9.9,77,10.4,8.2
9.9,77,11.1,10.3
9.9,77,11.7,12.3
9.9,77,12.2,14.2
9.9,77,12.6,16.1
9.9,77,13,17.9
9.9,77,13.4,19.8
10,77,13.7,21.6
10,77,13.9,23.4
10,77,14.1,25.1
10,77,14.2,26.9
10,77,14.1,28.6
10,77,14.1,30.3
10,77,13.9,32
10,77,13.8,33.6
10,78,13.8,35.3
10,78,13.8,37
10,78,13.8,38.7
10,78,13.9,40.4
10,78,14,42
10,78,14.1,43.4
10,78,14.3,44.8
10,78,14.6,46
10,78,15,47.3
10,78,15.5,48.5
10,78,16,49.7
10,78,16.4,51
10,78,16.8,52.2
10,78,17.2,53.4
10,78,17.5,54.6
10,78,17.9,55.6
10,78,18.1,56.6
10.1,78,18.4,57.5
10.1,78,18.6,58.2
10.1,78,18.7,58.7
10.1,78,18.8,59.2
10.1,78,18.7,59.5
10.1,78,18.6,59.8
10.1,78,18.3,59.9
10.1,78,17.9,60
10.1,78,17.4,60
10.1,78,16.9,60
10.1,78,16.4,59.9
10.1,78,15.9,59.7
10.1,78,15.6,59.6
10.1,78,15.3,59.6
10.1,78,15.1,59.6
10.1,79,14.9,59.6
10.1,79,14.7,59.7
10.1,79,14.6,59.7
10.1,79,14.5,59.8
10.1,79,14.5,59.8
10.1,79,14.4,59.7
10.1,79,14.5,59.6
10.1,79,14.5,59.4
10.1,79,14.6,59.2
10.1,79,14.7,59.1
10.2,79,14.7,59
10.2,79,14.6,58.9
10.2,79,14.4,58.7
10.2,79,14.1,58.5
10.2,79,13.6,58.3
10.2,79,13.1,57.9
10.2,79,12.4,57.4
10.2,79,11.6,56.7
10.2,79,10.7,55.9
10.2,79,9.8,54.9
10.2,79,8.8,53.8
10.2,79,7.8,52.6
10.2,79,6.9,51.3
10.2,79,6.2,50.1
10.2,79,5.5,48.8
10.2,79,5.1,47.5
10.2,79,4.8,46.3
10.2,79,4.6,45.1
10.2,79,4.6,44
10.2,79,4.7,42.9
10.2,79,4.9,42.1
10.2,79,5.4,41.4
10.2,80,6,40.9
10.2,80,6.7,40.7
10.2,80,7.5,40.5
10.3,80,8.3,40.6
10.3,80,9,40.6
10.3,80,9.6,40.7
10.3,80,10.1,40.8
10.3,80,10.4,40.7
10.3,80,10.6,40.6
10.3,80,10.7,40.3
10.3,80,10.7,40
10.3,80,10.6,39.6
10.3,80,10.4,39.1
10.3,80,10,38.6
10.3,80,9.5,38.1
10.3,80,8.9,37.6
10.3,80,8.3,37.1
10.3,80,7.5,36.6
10.3,80,6.8,36.1
10.3,80,6.1,35.7
10.3,80,5.4,35.1
10.3,80,4.6,34.5
10.3,80,4,33.7
10.3,80,3.4,32.8
10.3,80,2.8,31.8
10.3,80,2.3,30.7
10.3,80,1.8,29.4
10.3,80,1.3,28.1
10.4,80,0.9,26.7
10.4,80,0.4,25.4
10.4,80,0,24.1
10.4,80,-0.5,22.9
10.4,81,-0.9,21.7
10.4,81,-1.3,20.5
10.4,81,-1.7,19.3
10.4,81,-2.2,18
10.4,81,-2.7,16.6
10.4,81,-3.2,15.2
10.4,81,-3.7,13.8
10.4,81,-4.1,12.5
10.4,81,-4.5,11.4
10.4,81,-4.7,10.4
10.4,81,-4.9,9.6
10.4,81,-5.1,9
10.4,81,-5.3,8.6
10.4,81,-5.5,8.2
10.4,81,-5.7,7.8
10.4,81,-5.8,7.3
10.4,81,-5.9,6.8
10.4,81,-6,6.2
10.4,81,-6,5.5
10.4,81,-6,4.6
10.4,81,-5.9,3.7
10.5,81,-5.8,2.7
10.5,81,-5.6,1.6
10.5,81,-5.5,0.5
10.5,81,-5.4,-0.6
10.5,81,-5.2,-1.6
10.5,81,-5.1,-2.5
10.5,81,-5,-3.4
10.5,81,-4.8,-4.2
10.5,81,-4.7,-5
10.5,81,-4.5,-5.6
10.5,81,-4.3,-6.2
10.5,82,-4.1,-6.8
10.5,82,-3.8,-7.4
10.5,82,-3.5,-7.9
10.5,82,-3.3,-8.5
10.5,82,-3.1,-9
10.5,82,-3.1,-9.6
10.5,82,-3.1,-10.3
10.5,82,-3.2,-10.8
10.5,82,-3.4,-11.4
10.5,82,-3.7,-11.9
10.5,82,-4.2,-12.5
10.5,82,-4.8,-13
10.5,82,-5.5,-13.6
10.5,82,-6.3,-14.2
10.6,82,-7.1,-14.7
10.6,82,-7.7,-15.1
10.6,82,-8.1,-15.4
10.6,82,-8.3,-15.6
10.6,82,-8.3,-15.7
10.6,82,-8.2,-15.8
10.6,82,-8,-15.8
10.6,82,-7.6,-15.8
10.6,82,-7.2,-15.8
10.6,82,-6.8,-15.7
10.6,82,-6.3,-15.8
10.6,82,-5.8,-15.8
10.6,82,-5.4,-16
10.6,82,-4.9,-16.1
10.6,82,-4.4,-16.3
10.6,82,-3.9,-16.4
10.6,82,-3.5,-16.6
10.6,82,-3.2,-16.8
10.6,83,-2.9,-17
10.6,83,-2.7,-17.2
10.6,83,-2.5,-17.3
10.6,83,-2.4,-17.3
10.6,83,-2.3,-17.4
10.6,83,-2.4,-17.4
10.6,83,-2.4,-17.5
10.7,83,-2.5,-17.6
10.7,83,-2.5,-17.7
10.7,83,-2.4,-17.8
10.7,83,-2.4,-17.9
10.7,83,-2.3,-18
10.7,83,-2.2,-18.1
10.7,83,-2.1,-18.3
10.7,83,-2.1,-18.5
10.7,83,-2.2,-18.7
10.7,83,-2.3,-18.9
10.7,83,-2.6,-19.2
10.7,83,-2.9,-19.4
10.7,83,-3.3,-19.7
10.7,83,-3.7,-19.9
10.7,83,-4.1,-20.1
10.7,83,-4.5,-20.3
10.7,83,-4.7,-20.4
10.7,83,-4.8,-20.5
10.7,83,-4.8,-20.6
10.7,83,-4.5,-20.7
10.7,83,-4.2,-20.7
10.7,83,-3.7,-20.8
10.7,83,-3.2,-20.8
10.7,83,-2.6,-20.7
10.7,83,-2,-20.5
10.8,84,-1.5,-20.3
10.8,84,-1,-20
10.8,84,-0.7,-19.6
10.8,84,-0.4,-19.1
10.8,84,-0.1,-18.7
10.8,84,0.2,-18.2
10.8,84,0.5,-17.6
10.8,84,0.9,-17.1
10.8,84,1.2,-16.4
10.8,84,1.6,-15.8
10.8,84,2,-15.2
10.8,84,2.2,-14.6
10.8,84,2.4,-14.1
10.8,84,2.6,-13.7
10.8,84,2.6,-13.4
10.8,84,2.7,-13.1
10.8,84,2.8,-12.9
10.8,84,2.9,-12.6
10.8,84,3,-12.3
10.8,84,3.1,-12
10.8,84,3.1,-11.8
10.8,84,3.1,-11.6
10.8,84,2.9,-11.4
10.8,84,2.7,-11.4
10.8,84,2.2,-11.4
10.9,84,1.6,-11.5
10.9,84,0.8,-11.6
10.9,84,-0.1,-11.7
10.9,84,-1.1,-11.8
10.9,84,-2.1,-11.8
10.9,84,-3,-11.8
10.9,84,-3.7,-11.7
10.9,85,-4.3,-11.5
10.9,85,-4.7,-11.2
10.9,85,-5,-11
10.9,85,-5,-10.8
10.9,85,-5,-10.5
10.9,85,-4.7,-10.2
10.9,85,-4.4,-9.8
10.9,85,-4,-9.5
10.9,85,-3.5,-9.1
10.9,85,-2.9,-8.6
10.9,85,-2.4,-8.2
10.9,85,-1.8,-7.8
10.9,85,-1.4,-7.5
10.9,85,-1,-7.3
10.9,85,-0.8,-7.2
10.9,85,-0.7,-7.2
10.9,85,-0.8,-7.3
10.9,85,-0.9,-7.5
11,85,-1,-7.6
11,85,-1.3,-7.8
11,85,-1.6,-7.9
11,85,-2,-8.1
11,85,-2.3,-8.2
11,85,-2.6,-8.3
11,85,-2.8,-8.4
11,85,-3,-8.3
11,85,-3.1,-8.1
11,85,-3.1,-7.8
11,85,-3,-7.5
11,85,-2.9,-7
11,85,-2.8,-6.6
11,85,-2.7,-6.2
11,86,-2.6,-5.8
11,86,-2.6,-5.4
11,86,-2.6,-5.1
11,86,-2.7,-4.9
11,86,-2.7,-4.8
11,86,-2.8,-4.7
11,86,-2.8,-4.9
11,86,-2.7,-5.1
11,86,-2.7,-5.5
11,86,-2.7,-6.1
11,86,-2.7,-6.8
11.1,86,-2.8,-7.5
11.1,86,-2.9,-8.3
11.1,86,-3,-9
11.1,86,-3.1,-9.6
11.1,86,-3.2,-10.1
11.1,86,-3.2,-10.3
11.1,86,-3.2,-10.4
11.1,86,-3,-10.4
11.1,86,-2.8,-10.2
11.1,86,-2.4,-9.8
11.1,86,-2,-9.4
11.1,86,-1.5,-8.9
11.1,86,-1.1,-8.4
11.1,86,-0.6,-7.8
11.1,86,-0.3,-7.2
11.1,86,-0.1,-6.6
11.1,86,0.1,-6
11.1,86,0.2,-5.5
11.1,86,0.1,-4.9
11.1,86,0,-4.5
11.1,86,-0.1,-4.1
11.1,87,-0.3,-3.7
11.1,87,-0.5,-3.5
11.1,87,-0.8,-3.3
11.1,87,-1,-3.2
11.2,87,-1.3,-3.1
11.2,87,-1.5,-2.9
11.2,87,-1.7,-2.6
11.2,87,-1.8,-2.1
11.2,87,-1.9,-1.6
11.2,87,-1.9,-0.9
11.2,87,-2,-0.3
11.2,87,-2,0.2
11.2,87,-2.2,0.7
11.2,87,-2.4,1
11.2,87,-2.6,1.2
11.2,87,-2.8,1.4
11.2,87,-3,1.4
11.2,87,-3.1,1.5
11.2,87,-3.2,1.5
11.2,87,-3.2,1.5
11.2,87,-3.2,1.5
11.2,87,-3.1,1.5
11.2,87,-3,1.4
11.2,87,-2.9,1.4
11.2,87,-2.7,1.4
11.2,87,-2.5,1.4
11.2,87,-2.4,1.4
11.2,87,-2.2,1.5
11.2,87,-2.1,1.6
11.3,87,-2,1.7
11.3,87,-1.9,1.8
11.3,87,-1.8,2
11.3,88,-1.6,2.3
11.3,88,-1.4,2.5
11.3,88,-1.2,2.8
11.3,88,-0.8,3.1
11.3,88,-0.3,3.4
11.3,88,0.3,3.7
11.3,88,0.9,4
11.3,88,1.5,4.3
11.3,88,2.2,4.4
11.3,88,2.8,4.4
11.3,88,3.4,4.3
11.3,88,4,4
11.3,88,4.7,3.7
11.3,88,5.2,3.3
11.3,88,5.7,2.9
11.3,88,6.1,2.5
11.3,88,6.4,2.1
11.3,88,6.5,1.7
11.3,88,6.5,1.3
11.3,88,6.4,0.9
11.3,88,6.1,0.5
11.3,88,5.7,0.2
11.4,88,5.2,0
11.4,88,4.7,-0.2
11.4,88,4.1,-0.2
11.4,88,3.5,-0.2
11.4,88,3,-0.1
11.4,88,2.6,0.2
11.4,88,2.2,0.5
11.4,88,1.8,0.8
11.4,88,1.3,1
11.4,88,0.7,1
11.4,89,0,1
11.4,89,-0.7,1
11.4,89,-1.5,0.9
11.4,89,-2,0.8
11.4,89,-2.4,0.8
11.4,89,-2.5,0.9
11.4,89,-2.3,1
11.4,89,-2,1.1
11.4,89,-1.4,1.3
11.4,89,-0.8,1.3
11.4,89,-0.1,1.3
11.4,89,0.5,1.3
11.4,89,1,1.1
11.4,89,1.4,0.8
11.4,89,1.7,0.5
11.5,89,1.9,0.2
11.5,89,2,-0.1
11.5,89,2.1,-0.3
11.5,89,2.3,-0.3
11.5,89,2.5,-0.2
11.5,89,2.8,0
11.5,89,3,0.4
11.5,89,3.3,0.9
11.5,89,3.6,1.5
11.5,89,3.7,2.1
11.5,89,3.7,2.9
11.5,89,3.6,3.6
11.5,89,3.2,4.3
11.5,89,2.8,4.9
11.5,89,2.2,5.3
11.5,89,1.5,5.6
11.5,89,0.7,5.7
11.5,90,-0.1,5.6
11.5,90,-1,5.3
11.5,90,-1.8,4.8
11.5,90,-2.5,4
11.5,90,-3.1,3
11.5,90,-3.6,2
11.5,90,-4,0.9
11.5,90,-4.2,-0.1
11.6,90,-4.4,-1.1
11.6,90,-4.4,-2
11.6,90,-4.4,-2.8
11.6,90,-4.3,-3.4
11.6,90,-4.1,-3.9
11.6,90,-3.8,-4.1
11.6,90,-3.3,-4.3
11.6,90,-2.8,-4.4
11.6,90,-2.2,-4.4
11.6,90,-1.5,-4.4
11.6,90,-0.8,-4.3
11.6,90,-0.1,-4.3
11.6,90,0.6,-4.2
11.6,90,1.3,-4.1
11.6,90,2,-4
11.6,90,2.6,-3.8
11.6,90,3.1,-3.5
11.6,90,3.6,-3.2
11.6,90,3.9,-2.9
11.6,90,4,-2.6
11.6,90,4.1,-2.2
11.6,90,4.1,-1.9
11.6,90,4,-1.6
11.6,90,3.8,-1.3
11.6,91,3.6,-1
11.7,91,3.5,-0.7
11.7,91,3.5,-0.5
11.7,91,3.5,-0.2
11.7,91,3.5,0
11.7,91,3.6,0.2
11.7,91,3.7,0.4
11.7,91,3.8,0.6
11.7,91,3.9,0.7
11.7,91,3.8,0.8
11.7,91,3.7,0.8
11.7,91,3.5,0.7
11.7,91,3.2,0.6
11.7,91,3,0.4
11.7,91,2.7,0.2
11.7,91,2.4,-0.1
11.7,91,2.2,-0.4
11.7,91,1.9,-0.7
11.7,91,1.6,-1
11.7,91,1.3,-1.2
11.7,91,0.9,-1.4
11.7,91,0.6,-1.6
11.7,91,0.2,-1.8
11.7,91,-0.2,-2
11.7,91,-0.4,-2.1
11.7,91,-0.5,-2.2
11.8,91,-0.5,-2.3
11.8,91,-0.4,-2.3
11.8,91,-0.1,-2.3
11.8,91,0.2,-2.3
11.8,91,0.5,-2.2
11.8,91,0.8,-2.1
11.8,92,1,-2
11.8,92,1.2,-1.8
11.8,92,1.3,-1.6
11.8,92,1.3,-1.2
11.8,92,1.3,-0.8
11.8,92,1.3,-0.3
11.8,92,1.3,0.3
11.8,92,1.3,0.8
11.8,92,1.2,1.2
11.8,92,1.1,1.5
11.8,92,0.9,1.6
11.8,92,0.6,1.5
11.8,92,0.2,1.3
11.8,92,-0.2,1.1
11.8,92,-0.8,0.9
11.8,92,-1.3,0.7
11.8,92,-1.9,0.6
11.8,92,-2.5,0.7
11.8,92,-3.1,0.9
11.9,92,-3.6,1.2
11.9,92,-4.1,1.5
11.9,92,-4.5,1.9
11.9,92,-4.8,2.3
11.9,92,-5,2.6
11.9,92,-5,2.9
11.9,92,-5,3.1
11.9,92,-4.8,3.2
11.9,92,-4.6,3.2
11.9,92,-4.3,3.1
11.9,92,-3.9,2.9
11.9,92,-3.5,2.6
11.9,92,-3,2.2
11.9,93,-2.6,1.7
11.9,93,-2.1,1.1
11.9,93,-1.8,0.6
11.9,93,-1.6,0
11.9,93,-1.6,-0.5
11.9,93,-1.6,-1
11.9,93,-1.8,-1.4
11.9,93,-1.9,-1.7
11.9,93,-2.1,-2.1
11.9,93,-2.2,-2.4
11.9,93,-2.3,-2.6
11.9,93,-2.3,-2.7
12,93,-2.4,-2.8
12,93,-2.4,-2.8
12,93,-2.5,-2.8
12,93,-2.6,-2.8
12,93,-2.8,-2.7
12,93,-3,-2.7
12,93,-3.3,-2.6
12,93,-3.5,-2.5
12,93,-3.7,-2.4
12,93,-3.7,-2.2
12,93,-3.7,-2
12,93,-3.5,-1.8
12,93,-3.2,-1.6
12,93,-2.8,-1.3
12,93,-2.4,-0.9
12,93,-2,-0.5
12,93,-1.7,-0.1
12,93,-1.3,0.3
12,93,-1,0.7
12,93,-0.7,1.1
12,94,-0.4,1.4
12,94,0.1,1.6
12,94,0.6,1.8
12,94,1,1.8
12,94,1.4,1.7
12.1,94,1.7,1.4
12.1,94,1.8,1.2
12.1,94,1.9,0.8
12.1,94,1.9,0.4
12.1,94,1.9,0.1
12.1,94,1.8,-0.3
12.1,94,1.7,-0.7
12.1,94,1.5,-1
12.1,94,1.3,-1.3
12.1,94,1.1,-1.5
12.1,94,0.9,-1.7
12.1,94,0.8,-1.8
12.1,94,0.6,-1.8
12.1,94,0.5,-1.8
12.1,94,0.5,-1.8
12.1,94,0.4,-1.8
12.1,94,0.2,-1.8
12.1,94,0,-1.9
12.1,94,-0.2,-2
12.1,94,-0.6,-2.1
12.1,94,-1,-2.3
12.1,94,-1.5,-2.6
12.1,94,-2.1,-3
12.1,94,-2.8,-3.5
12.1,94,-3.4,-4.1
12.2,94,-4.1,-5
12.2,94,-4.8,-6.2
12.2,95,-5.5,-7.8
12.2,95,-6.4,-9.9
12.2,95,-7.4,-12.6
12.2,95,-8.5,-15.9
12.2,95,-9.5,-19.8
12.2,95,-10.6,-24.4
12.2,95,-11.8,-29.6
12.2,95,-13.1,-35.6
12.2,95,-14.5,-42.5
12.2,95,-16,-50.1
12.2,95,-17.7,-58.5
12.2,95,-19.6,-67.6
12.2,95,-21.7,-77.3
12.2,95,-24.1,-87.6
12.2,95,-26.6,-98.3
12.2,95,-29.2,-109.1
12.2,95,-31.9,-119.7
12.2,95,-34.7,-129.9
12.2,95,-37.7,-139.4
12.2,95,-40.8,-147.7
12.2,95,-43.8,-154.5
12.2,95,-46.4,-159.5
12.2,95,-48.6,-162.5
12.3,95,-50,-163.2
12.3,95,-50.5,-161.6
12.3,95,-50.1,-158
12.3,95,-48.8,-152.3
12.3,95,-46.7,-144.8
12.3,95,-43.9,-135.8
12.3,95,-40.6,-125.6
12.3,95,-36.9,-114.3
12.3,95,-32.7,-102.3
12.3,96,-28.3,-89.7
12.3,96,-23.5,-76.7
12.3,96,-18.6,-63.6
12.3,96,-13.4,-50.5
12.3,96,-8.2,-37.6
12.3,96,-2.9,-25.1
12.3,96,2.4,-13.1
12.3,96,7.4,-1.7
12.3,96,12.4,8.9
12.3,96,17.1,18.9
12.3,96,21.7,28.3
12.3,96,26.1,37.2
12.3,96,30.3,45.6
12.3,96,34.2,53.6
12.3,96,37.8,61.2
12.3,96,41.2,68.5
12.4,96,44.3,75.4
12.4,96,47.1,82.1
12.4,96,49.7,88.5
12.4,96,52.3,94.9
12.4,96,54.7,101.2
12.4,96,57.1,107.4
12.4,96,59.4,113.6
12.4,96,61.6,119.6
12.4,96,63.7,125.4
12.4,96,65.7,130.9
12.4,96,67.6,136.2
12.4,96,69.5,141.3
12.4,96,71.4,146.2
12.4,96,73.2,150.6
12.4,96,74.9,154.7
12.4,96,76.4,158.1
12.4,97,77.6,161.1
12.4,97,78.7,163.6
12.4,97,79.6,165.5
12.4,97,80.2,166.8
12.4,97,80.5,167.6
12.4,97,80.6,167.9
12.4,97,80.2,167.7
12.4,97,79.5,167.1
12.4,97,78.4,166
12.5,97,76.8,164.4
12.5,97,74.9,162.5
12.5,97,72.7,160.3
12.5,97,70.3,157.8
12.5,97,67.8,155.3
12.5,97,65.2,152.6
12.5,97,62.7,149.8
12.5,97,60.1,147
12.5,97,57.5,144
12.5,97,54.9,141
12.5,97,52.1,138
12.5,97,49.3,134.9
12.5,97,46.4,131.8
12.5,97,43.5,128.7
12.5,97,40.5,125.6
12.5,97,37.6,122.4
12.5,97,34.7,119.2
12.5,97,31.9,116
12.5,97,29.2,112.6
12.5,97,26.5,109.1
12.5,97,23.8,105.5
12.5,97,21.2,101.7
12.5,97,18.5,97.9
12.5,98,15.9,94.1
12.5,98,13.2,90.2
12.6,98,10.5,86.1
12.6,98,7.6,81.8
12.6,98,4.5,77.2
12.6,98,1.2,72.2
12.6,98,-2.3,66.8
12.6,98,-5.9,61.2
12.6,98,-9.4,55.5
12.6,98,-12.7,49.7
12.6,98,-15.7,44.1
12.6,98,-18.5,38.7
12.6,98,-21.1,33.4
12.6,98,-23.6,28.3
12.6,98,-25.9,23.2
12.6,98,-28.2,18
12.6,98,-30.5,12.9
12.6,98,-32.7,7.7
12.6,98,-34.9,2.5
12.6,98,-37,-2.6
12.6,98,-39,-7.5
12.6,98,-41,-12.1
12.6,98,-42.9,-16.4
12.6,98,-44.6,-20.2
12.6,98,-46.2,-23.6
12.6,98,-47.7,-26.7
12.6,98,-49.1,-29.5
12.7,98,-50.4,-32
12.7,98,-51.6,-34.3
12.7,98,-52.8,-36.5
12.7,98,-53.9,-38.4
12.7,98,-54.8,-40.2
12.7,99,-55.6,-41.9
12.7,99,-56.2,-43.5
12.7,99,-56.7,-45.1
12.7,99,-57.2,-46.6
12.7,99,-57.6,-48.3
12.7,99,-58,-50.2
12.7,99,-58.5,-52.3
12.7,99,-58.8,-54.6
12.7,99,-59.1,-57
12.7,99,-59.2,-59.5
12.7,99,-59.1,-62
12.7,99,-58.8,-64.4
12.7,99,-58.3,-66.6
12.7,99,-57.7,-68.8
12.7,99,-57,-70.9
12.7,99,-56.4,-73
12.7,99,-55.9,-75
12.7,99,-55.5,-76.9
12.7,99,-55.3,-78.8
12.7,99,-55.2,-80.6
12.8,99,-55.2,-82.2
12.8,99,-55.2,-83.5
12.8,99,-55.2,-84.6
12.8,99,-55.2,-85.5
12.8,99,-55.2,-86.1
12.8,99,-55,-86.6
12.8,99,-54.7,-87
12.8,99,-54.3,-87.3
12.8,99,-53.8,-87.4
12.8,99,-53.1,-87.6
12.8,99,-52.5,-87.8
12.8,99,-51.8,-88.1
12.8,100,-51.2,-88.7
12.8,100,-50.6,-89.4
12.8,100,-50.1,-90.2
12.8,100,-49.6,-91.2
12.8,100,-49.1,-92.3
12.8,100,-48.5,-93.5
12.8,100,-47.9,-94.9
12.8,100,-47.4,-96.4
12.8,100,-46.8,-98
12.8,100,-46.2,-99.6
12.8,100,-45.6,-101
12.8,100,-45,-102.3
12.8,100,-44.4,-103.3
12.9,100,-43.7,-103.9
12.9,100,-42.9,-104
12.9,100,-42,-103.8
12.9,100,-41.1,-103.4
12.9,100,-40.2,-102.9
12.9,100,-39.4,-102.3
12.9,100,-38.7,-101.6
12.9,100,-38.2,-100.9
12.9,100,-37.9,-100.1
12.9,100,-37.7,-99.2
12.9,100,-37.5,-98.3
12.9,100,-37.3,-97.2
12.9,100,-36.8,-96
12.9,100,-36.2,-94.7
12.9,100,-35.4,-93.3
12.9,100,-34.4,-91.9
12.9,100,-33.2,-90.4
12.9,100,-31.9,-88.9
12.9,100,-30.5,-87.4
12.9,101,-28.9,-85.8
12.9,101,-27.2,-84.3
12.9,101,-25.4,-82.8
12.9,101,-23.6,-81.4
12.9,101,-22,-80
12.9,101,-20.7,-78.7
13,101,-19.7,-77.4
13,101,-18.9,-76.2
13,101,-18.2,-74.9
13,101,-17.6,-73.5
13,101,-16.8,-71.8
13,101,-15.9,-69.9
13,101,-14.7,-67.7
13,101,-13.2,-65.3
13,101,-11.4,-62.7
13,101,-9.4,-59.9
13,101,-7,-57
13,101,-4.3,-54.1
13,101,-1.6,-51.1
13,101,1.2,-48
13,101,3.8,-44.8
13,101,6.2,-41.7
13,101,8.3,-38.6
13,101,10.2,-35.5
13,101,11.9,-32.5
13,101,13.5,-29.4
13,101,15,-26.4
13,101,16.5,-23.3
13,101,18.1,-20.4
13,101,19.7,-17.5
13,101,21.3,-14.8
13.1,101,23,-12.1
13.1,102,24.7,-9.4
13.1,102,26.4,-6.8
13.1,102,28,-4.3
13.1,102,29.5,-1.8
13.1,102,30.8,0.5
13.1,102,31.9,2.8
13.1,102,32.9,5.1
13.1,102,34,7.5
13.1,102,35.1,10.1
13.1,102,36.4,12.8
13.1,102,37.9,15.7
13.1,102,39.5,18.7
13.1,102,41.1,21.9
13.1,102,42.8,25.3
13.1,102,44.7,28.8
13.1,102,46.8,32.5
13.1,102,49,36.2
13.1,102,51.4,39.9
13.1,102,53.7,43.3
13.1,102,55.9,46.4
13.1,102,57.9,49.2
13.1,102,59.6,51.7
13.1,102,60.9,53.8
13.1,102,61.7,55.4
13.2,102,62,56.5
13.2,102,61.8,57.2
13.2,102,61.1,57.5
13.2,102,60,57.4
13.2,102,58.6,57.2
13.2,102,57,56.9
13.2,102,55.5,56.6
13.2,102,54,56.5
13.2,103,52.7,56.6
13.2,103,51.5,56.7
13.2,103,50.6,57.1
13.2,103,50,57.4
13.2,103,49.7,57.9
13.2,103,49.5,58.3
13.2,103,49.5,58.9
13.2,103,49.5,59.4
13.2,103,49.6,59.9
13.2,103,49.4,60.4
13.2,103,49.1,60.7
13.2,103,48.6,60.9
13.2,103,47.8,61
13.2,103,46.9,61.1
13.2,103,46.1,61.3
13.2,103,45.4,61.5
13.2,103,44.8,61.7
13.3,103,44.4,61.9
13.3,103,44.1,62
13.3,103,44,62.1
13.3,103,44.2,62.1
13.3,103,44.5,62.2
13.3,103,44.9,62.1
13.3,103,45.5,62
13.3,103,46.2,62
13.3,103,47,62
13.3,103,47.9,62.2
13.3,103,49,62.6
13.3,103,50.2,63.3
13.3,103,51.5,64.2
13.3,103,52.8,65.3
13.3,103,54.1,66.4
13.3,104,55.2,67.7
13.3,104,56.2,69.2
13.3,104,56.9,71
13.3,104,57.6,73.1
13.3,104,58.2,75.6
13.3,104,58.7,78.5
13.3,104,59.2,81.9
13.3,104,59.7,85.7
13.3,104,60.2,90
13.3,104,60.7,94.7
13.4,104,61,99.7
13.4,104,61.2,104.8
13.4,104,61.1,110
13.4,104,60.8,115
13.4,104,60,119.7
13.4,104,58.9,123.8
13.4,104,57.3,127.2
13.4,104,55.5,129.8
13.4,104,53.4,131.4
13.4,104,51.1,132.1
13.4,104,48.7,131.6
13.4,104,46.2,130
13.4,104,43.6,127.4
13.4,104,41,123.7
13.4,104,38.4,119.1
13.4,104,35.9,113.6
13.4,104,33.5,107.4
13.4,104,31.2,100.6
13.4,104,28.9,93.2
13.4,104,26.5,85.4
13.4,104,24.1,77.4
13.4,104,21.6,69.4
13.4,105,19,61.4
13.4,105,16.5,53.7
13.4,105,13.9,46.4
13.5,105,11.4,39.7
13.5,105,9,33.6
13.5,105,6.7,28.1
13.5,105,4.5,23.3
13.5,105,2.5,19
13.5,105,0.5,15.3
13.5,105,-1.3,12
13.5,105,-3.1,9.1
13.5,105,-4.8,6.4
13.5,105,-6.6,3.8
13.5,105,-8.3,1.2
13.5,105,-10.1,-1.5
13.5,105,-11.9,-4.3
13.5,105,-13.6,-7.5
13.5,105,-15.3,-10.8
13.5,105,-17,-14.5
13.5,105,-18.6,-18.4
13.5,105,-20.2,-22.5
13.5,105,-21.7,-26.9
13.5,105,-23.3,-31.4
13.5,105,-25,-36.1
13.5,105,-26.7,-40.8
13.5,105,-28.5,-45.6
13.5,105,-30.3,-50.3
13.5,105,-32.1,-55
13.6,105,-34,-59.6
13.6,105,-36,-64.1
13.6,105,-37.9,-68.4
13.6,105,-39.8,-72.5
13.6,106,-41.7,-76.4
13.6,106,-43.6,-80.1
13.6,106,-45.5,-83.7
13.6,106,-47.4,-87.1
13.6,106,-49.2,-90.5
13.6,106,-50.9,-93.7
13.6,106,-52.7,-96.8
13.6,106,-54.4,-99.8
13.6,106,-56.1,-102.6
13.6,106,-57.7,-105.3
13.6,106,-59.4,-108
13.6,106,-61.1,-110.6
13.6,106,-62.7,-113.1
13.6,106,-64.1,-115.4
13.6,106,-65.5,-117.6
13.6,106,-66.7,-119.5
13.6,106,-67.7,-121.2
13.6,106,-68.5,-122.6
13.6,106,-69.1,-123.8
13.6,106,-69.4,-124.8
13.6,106,-69.6,-125.5
13.7,106,-69.4,-125.9
13.7,106,-69.1,-126.1
13.7,106,-68.6,-126.1
13.7,106,-68,-125.8
13.7,106,-67.4,-125.2
13.7,106,-66.7,-124.2
13.7,106,-66,-123
13.7,106,-65.2,-121.5
13.7,106,-64.6,-119.8
13.7,106,-63.9,-117.8
13.7,106,-63.3,-115.7
13.7,107,-62.7,-113.4
13.7,107,-62.1,-111.1
13.7,107,-61.4,-108.7
13.7,107,-60.8,-106.4
13.7,107,-60,-104
13.7,107,-59.2,-101.6
13.7,107,-58.3,-99.3
13.7,107,-57.3,-97
13.7,107,-56.2,-94.8
13.7,107,-55,-92.5
13.7,107,-53.7,-90.2
13.7,107,-52.4,-87.9
13.7,107,-50.9,-85.6
13.7,107,-49.4,-83.2
13.8,107,-47.9,-80.8
13.8,107,-46.4,-78.3
13.8,107,-44.8,-75.7
13.8,107,-43.3,-73
13.8,107,-41.7,-70.1
13.8,107,-40,-67.2
13.8,107,-38.3,-64.2
13.8,107,-36.5,-61.2
13.8,107,-34.7,-58.3
13.8,107,-32.9,-55.4
13.8,107,-31.1,-52.6
13.8,107,-29.3,-49.9
13.8,107,-27.5,-47.3
13.8,107,-25.8,-44.7
13.8,107,-24,-42.1
13.8,107,-22.3,-39.6
13.8,107,-20.5,-37
13.8,107,-18.6,-34.3
13.8,108,-16.6,-31.6
13.8,108,-14.7,-28.8
13.8,108,-12.8,-25.9
13.8,108,-11.1,-22.9
13.8,108,-9.4,-19.9
13.8,108,-7.9,-16.8
13.8,108,-6.5,-13.6
13.9,108,-5.1,-10.3
13.9,108,-3.8,-7.1
13.9,108,-2.5,-3.8
13.9,108,-1.1,-0.6
13.9,108,0.1,2.5
13.9,108,1.2,5.4
13.9,108,2.2,8.1
13.9,108,3,10.5
13.9,108,3.7,12.6
13.9,108,4.3,14.6
13.9,108,4.8,16.4
13.9,108,5.4,18
13.9,108,5.8,19.6
13.9,108,6.2,21
13.9,108,6.5,22.4
13.9,108,6.7,23.6
13.9,108,6.7,24.7
13.9,108,6.6,25.6
13.9,108,6.3,26.5
13.9,108,5.9,27.4
13.9,108,5.5,28.3
13.9,108,5.3,29.3
13.9,108,5.4,30.5
13.9,108,5.7,31.9
13.9,108,6.2,33.4
14,109,7,35.1
14,109,8.1,37
14,109,9.3,39
14,109,10.7,41.3
14,109,12.2,43.6
14,109,13.8,46.1
14,109,15.3,48.5
14,109,16.7,50.9
14,109,17.9,53.2
14,109,18.8,55.3
14,109,19.5,57.2
14,109,20,58.9
14,109,20.3,60.4
14,109,20.3,61.6
14,109,20.2,62.5
14,109,20,63.1
14,109,19.7,63.5
14,109,19.3,63.7
14,109,18.8,63.7
14,109,18.4,63.7
14,109,17.9,63.5
14,109,17.5,63.3
14,109,17.2,63
14,109,16.9,62.5
14,109,16.7,62
14.1,109,16.6,61.4
14.1,109,16.6,60.7
14.1,109,16.6,60
14.1,109,16.7,59.2
14.1,109,16.8,58.4
14.1,109,17,57.8
14.1,109,17.2,57.2
14.1,110,17.6,56.9
14.1,110,18,56.9
14.1,110,18.6,57.1
14.1,110,19.1,57.5
14.1,110,19.7,58.1
14.1,110,20.2,58.7
14.1,110,20.6,59.2
14.1,110,20.9,59.8
14.1,110,21.1,60.2
14.1,110,21.3,60.5
14.1,110,21.4,60.8
14.1,110,21.4,61
14.1,110,21.4,61
14.1,110,21.4,61
14.1,110,21.4,60.9
14.1,110,21.5,60.7
14.1,110,21.6,60.3
14.1,110,21.9,59.8
14.2,110,22.3,59.1
14.2,110,22.7,58.3
14.2,110,23,57.3
14.2,110,23.4,56.2
14.2,110,23.6,55
14.2,110,23.7,53.7
14.2,110,23.7,52.4
14.2,110,23.7,51.1
14.2,110,23.5,49.7
14.2,110,23.3,48.2
14.2,110,22.9,46.8
14.2,110,22.4,45.4
14.2,110,21.7,44.1
14.2,110,21,42.9
14.2,111,20.3,41.8
14.2,111,19.4,40.9
14.2,111,18.6,40.1
14.2,111,17.9,39.5
14.2,111,17.2,39
14.2,111,16.7,38.6
14.2,111,16.3,38.3
14.2,111,16,38
14.2,111,15.7,37.6
14.2,111,15.3,37.2
14.2,111,14.9,36.7
14.3,111,14.5,36.2
14.3,111,14,35.5
14.3,111,13.4,34.8
14.3,111,12.9,33.9
14.3,111,12.3,32.9
14.3,111,11.7,31.8
14.3,111,11.1,30.6
14.3,111,10.5,29.4
14.3,111,9.8,28
14.3,111,9.1,26.5
14.3,111,8.3,24.9
14.3,111,7.4,23.2
14.3,111,6.6,21.4
14.3,111,5.7,19.7
14.3,111,5,18
14.3,111,4.3,16.4
14.3,111,3.8,14.9
14.3,111,3.4,13.6
14.3,111,3.2,12.5
14.3,111,3.1,11.6
14.3,111,3,10.8
14.3,112,3,10.1
14.3,112,2.9,9.5
14.3,112,2.8,9.1
14.3,112,2.7,8.6
14.4,112,2.4,8.2
14.4,112,2,7.8
14.4,112,1.5,7.4
14.4,112,0.9,7
14.4,112,0.2,6.6
14.4,112,-0.6,6.1
14.4,112,-1.4,5.7
14.4,112,-2.2,5.3
14.4,112,-2.9,4.8
14.4,112,-3.5,4.3
14.4,112,-3.9,3.7
14.4,112,-4.1,3.1
14.4,112,-4.2,2.3
14.4,112,-4.2,1.5
14.4,112,-4.1,0.6
14.4,112,-3.9,-0.3
14.4,112,-3.6,-1.2
14.4,112,-3.1,-2
14.4,112,-2.5,-2.8
14.4,112,-1.7,-3.5
14.4,112,-0.8,-4.2
14.4,112,0.2,-4.7
14.4,112,1.1,-5.3
14.4,112,2.1,-5.7
14.4,112,2.9,-6.2
14.5,112,3.7,-6.7
14.5,112,4.3,-7.2
14.5,112,4.8,-7.7
14.5,113,5,-8.1
14.5,113,5.1,-8.6
14.5,113,4.9,-9.1
14.5,113,4.5,-9.7
14.5,113,3.9,-10.3
14.5,113,3.2,-10.9
14.5,113,2.2,-11.6
14.5,113,1.1,-12.3
14.5,113,0,-13
14.5,113,-1.2,-13.6
14.5,113,-2.2,-14.1
14.5,113,-3.2,-14.5
14.5,113,-4.1,-14.7
14.5,113,-4.8,-14.9
14.5,113,-5.3,-14.8
14.5,113,-5.7,-14.7
14.5,113,-6,-14.6
14.5,113,-6.1,-14.4
14.5,113,-6.2,-14.3
14.5,113,-6.3,-14.2
14.5,113,-6.4,-14.2
14.5,113,-6.6,-14.2
14.6,113,-6.8,-14.4
14.6,113,-7.1,-14.7
14.6,113,-7.5,-15.1
14.6,113,-8,-15.6
14.6,113,-8.4,-16.1
14.6,113,-8.8,-16.8
14.6,113,-9.1,-17.5
14.6,113,-9.2,-18.2
14.6,113,-9.3,-19
14.6,113,-9.4,-19.7
14.6,114,-9.3,-20.4
14.6,114,-9.2,-21
14.6,114,-9,-21.4
14.6,114,-8.7,-21.7
14.6,114,-8.3,-21.8
14.6,114,-7.8,-21.8
14.6,114,-7.4,-21.7
14.6,114,-6.9,-21.6
14.6,114,-6.5,-21.5
14.6,114,-6.2,-21.4
14.6,114,-6,-21.4
14.6,114,-5.8,-21.4
14.6,114,-5.6,-21.4
14.6,114,-5.4,-21.4
14.6,114,-5.3,-21.4
14.7,114,-5.2,-21.2
14.7,114,-5.1,-21
14.7,114,-5,-20.7
14.7,114,-4.9,-20.3
14.7,114,-4.8,-19.8
14.7,114,-4.8,-19.2
14.7,114,-4.7,-18.6
14.7,114,-4.5,-18
14.7,114,-4.4,-17.4
14.7,114,-4.2,-16.8
14.7,114,-4,-16.4
14.7,114,-3.8,-16
14.7,114,-3.6,-15.8
14.7,114,-3.4,-15.6
14.7,114,-3.3,-15.6
14.7,114,-3.2,-15.5
14.7,114,-3.3,-15.4
14.7,115,-3.4,-15.2
14.7,115,-3.6,-14.9
14.7,115,-3.7,-14.5
14.7,115,-3.9,-14
14.7,115,-4,-13.5
14.7,115,-4.1,-12.8
14.7,115,-4.1,-12.1
14.7,115,-4,-11.4
14.8,115,-4.1,-10.7
14.8,115,-4.3,-10.2
14.8,115,-4.6,-10
14.8,115,-5.1,-9.9
14.8,115,-5.8,-10.1
14.8,115,-6.4,-10.5
14.8,115,-6.9,-11
14.8,115,-7.2,-11.7
14.8,115,-7.3,-12.4
14.8,115,-7.1,-13.1
14.8,115,-6.7,-13.8
14.8,115,-6,-14.4
14.8,115,-5.1,-14.8
14.8,115,-4.2,-15.2
14.8,115,-3.1,-15.4
14.8,115,-2.1,-15.5
14.8,115,-1.1,-15.4
14.8,115,-0.2,-15.2
14.8,115,0.6,-14.9
14.8,115,1.4,-14.4
14.8,115,2,-13.8
14.8,115,2.5,-13
14.8,115,3,-12
14.8,115,3.5,-10.9
14.8,116,3.9,-9.6
14.9,116,4.4,-8.3
14.9,116,4.9,-6.9
14.9,116,5.3,-5.6
14.9,116,5.7,-4.2
14.9,116,6,-2.9
14.9,116,6.2,-1.8
14.9,116,6.5,-0.8
14.9,116,6.6,0.1
14.9,116,6.7,0.7
14.9,116,6.7,1
14.9,116,6.6,1.1
14.9,116,6.5,0.9
14.9,116,6.3,0.6
14.9,116,6.1,0.1
14.9,116,5.9,-0.5
14.9,116,5.6,-1.2
14.9,116,5.3,-1.9
14.9,116,4.9,-2.6
14.9,116,4.4,-3.1
14.9,116,3.9,-3.7
14.9,116,3.2,-4.1
14.9,116,2.5,-4.3
14.9,116,1.6,-4.5
14.9,116,0.8,-4.5
14.9,116,0,-4.4
15,116,-0.8,-4
15,116,-1.3,-3.6
15,116,-1.7,-3
15,116,-2,-2.4
15,116,-2.1,-1.7
15,116,-2.1,-1
15,117,-2.1,-0.4
15,117,-2,0.2
15,117,-1.8,0.8
15,117,-1.6,1.3
15,117,-1.2,1.7
15,117,-0.7,2
15,117,-0.1,2.2
15,117,0.7,2.3
15,117,1.5,2.4
15,117,2.3,2.5
15,117,3.1,2.5
15,117,3.8,2.5
15,117,4.6,2.3
15,117,5.2,2.1
15,117,5.7,1.9
15,117,6.1,1.7
15,117,6.4,1.4
15,117,6.7,1.2
15,117,6.8,1
15.1,117,6.9,0.8
15.1,117,6.8,0.7
15.1,117,6.8,0.5
15.1,117,6.6,0.4
15.1,117,6.4,0.2
15.1,117,6.2,0.1
15.1,117,5.8,0
15.1,117,5.4,-0.1
15.1,117,4.9,-0.3
15.1,117,4.2,-0.5
15.1,117,3.4,-0.8
15.1,117,2.5,-1.1
15.1,117,1.5,-1.3
15.1,118,0.5,-1.6
15.1,118,-0.6,-1.7
15.1,118,-1.6,-1.8
15.1,118,-2.6,-1.7
15.1,118,-3.4,-1.6
15.1,118,-4,-1.5
15.1,118,-4.5,-1.3
15.1,118,-4.8,-1
15.1,118,-4.9,-0.8
15.1,118,-5,-0.5
15.1,118,-4.9,-0.3
15.1,118,-4.8,-0.1
15.2,118,-4.6,0
15.2,118,-4.3,0
15.2,118,-3.9,-0.1
15.2,118,-3.5,-0.3
15.2,118,-2.9,-0.6
15.2,118,-2.2,-1
15.2,118,-1.4,-1.4
15.2,118,-0.6,-1.9
15.2,118,0.2,-2.3
15.2,118,1,-2.8
15.2,118,1.6,-3.2
15.2,118,2.1,-3.5
15.2,118,2.4,-3.7
15.2,118,2.6,-3.8
15.2,118,2.6,-3.8
15.2,118,2.5,-3.7
15.2,118,2.2,-3.5
15.2,118,1.8,-3.2
15.2,118,1.4,-2.9
15.2,118,0.8,-2.5
15.2,119,0.1,-2
15.2,119,-0.6,-1.4
15.2,119,-1.4,-0.9
15.2,119,-2.1,-0.4
15.2,119,-2.9,0.1
15.3,119,-3.6,0.4
15.3,119,-4.3,0.6
15.3,119,-4.9,0.7
15.3,119,-5.4,0.7
15.3,119,-5.7,0.6
15.3,119,-5.9,0.4
15.3,119,-5.8,0.1
15.3,119,-5.6,-0.3
15.3,119,-5.2,-0.7
15.3,119,-4.7,-1.1
15.3,119,-4.2,-1.5
15.3,119,-3.7,-1.9
15.3,119,-3.1,-2.3
15.3,119,-2.6,-2.5
15.3,119,-2.1,-2.6
15.3,119,-1.5,-2.6
15.3,119,-1.1,-2.5
15.3,119,-0.6,-2.4
15.3,119,-0.3,-2.2
15.3,119,-0.1,-2
15.3,119,0,-1.8
15.3,119,0,-1.6
15.3,119,-0.1,-1.3
15.3,119,-0.3,-1.1
15.3,119,-0.5,-0.9
15.4,119,-0.8,-0.7
15.4,119,-1.1,-0.6
15.4,120,-1.4,-0.6
15.4,120,-1.7,-0.7
15.4,120,-2,-0.7
15.4,120,-2.3,-0.8
15.4,120,-2.6,-0.9
15.4,120,-2.9,-1
15.4,120,-3.2,-1
15.4,120,-3.5,-1
15.4,120,-3.7,-1.1
15.4,120,-4,-1
15.4,120,-4.2,-1
15.4,120,-4.3,-0.8
15.4,120,-4.3,-0.7
15.4,120,-4.3,-0.5
15.4,120,-4.1,-0.4
15.4,120,-3.8,-0.3
15.4,120,-3.4,-0.3
15.4,120,-2.9,-0.2
15.4,120,-2.4,-0.1
15.4,120,-1.8,-0.1
15.4,120,-1.2,-0.1
15.4,120,-0.7,-0.1
15.4,120,-0.3,-0.2
15.5,120,0.1,-0.5
15.5,120,0.3,-0.8
15.5,120,0.4,-1.2
15.5,120,0.4,-1.7
15.5,120,0.3,-2.2
15.5,120,0.1,-2.6
15.5,120,-0.2,-3
15.5,120,-0.5,-3.3
15.5,120,-0.9,-3.5
15.5,121,-1.2,-3.5
15.5,121,-1.5,-3.4
15.5,121,-1.7,-3.1
15.5,121,-1.7,-2.7
15.5,121,-1.7,-2.3
15.5,121,-1.5,-1.8
15.5,121,-1.2,-1.3
15.5,121,-0.8,-0.9
15.5,121,-0.4,-0.5
15.5,121,0,-0.2
15.5,121,0.3,0.1
15.5,121,0.6,0.4
15.5,121,0.8,0.6
15.5,121,0.9,0.8
15.5,121,1,1
15.5,121,1,1
15.6,121,1,1.1
15.6,121,1,1
15.6,121,0.9,0.8
15.6,121,0.6,0.5
15.6,121,0.1,0.1
15.6,121,-0.5,-0.5
15.6,121,-1.2,-1.2
15.6,121,-1.9,-1.9
15.6,121,-2.5,-2.7
15.6,121,-3,-3.4
15.6,121,-3.2,-4
15.6,121,-3.2,-4.5
15.6,121,-3.1,-4.9
15.6,121,-2.9,-5.2
15.6,121,-2.6,-5.4
15.6,121,-2.2,-5.5
15.6,122,-1.9,-5.6
15.6,122,-1.5,-5.5
15.6,122,-1,-5.4
15.6,122,-0.5,-5.2
15.6,122,0,-5
15.6,122,0.6,-4.7
15.6,122,1.2,-4.4
15.6,122,1.7,-4.2
15.6,122,2.1,-4
15.7,122,2.5,-3.7
15.7,122,2.8,-3.5
15.7,122,3,-3.2
15.7,122,3.1,-2.9
15.7,122,3.3,-2.6
15.7,122,3.4,-2.2
15.7,122,3.6,-1.7
15.7,122,3.8,-1.3
15.7,122,4,-0.8
15.7,122,4.2,-0.4
15.7,122,4.4,0
15.7,122,4.6,0.5
15.7,122,4.6,0.9
15.7,122,4.7,1.3
15.7,122,4.6,1.8
15.7,122,4.4,2.2
15.7,122,4.1,2.6
15.7,122,3.6,3
15.7,122,3,3.3
15.7,122,2.3,3.5
15.7,122,1.6,3.6
15.7,122,1,3.6
15.7,122,0.4,3.4
15.7,123,-0.1,3.2
15.7,123,-0.4,3
15.8,123,-0.6,2.8
15.8,123,-0.6,2.6
15.8,123,-0.6,2.5
15.8,123,-0.5,2.5
15.8,123,-0.3,2.6
15.8,123,0,2.8
15.8,123,0.3,2.9
15.8,123,0.6,2.9
15.8,123,1,2.8
15.8,123,1.5,2.7
15.8,123,1.9,2.5
15.8,123,2.4,2.2
15.8,123,2.9,1.9
15.8,123,3.3,1.5
15.8,123,3.6,1
15.8,123,3.9,0.5
15.8,123,4.2,-0.1
15.8,123,4.4,-0.6
15.8,123,4.5,-1.1
15.8,123,4.6,-1.5
15.8,123,4.6,-1.7
15.8,123,4.5,-1.9
15.8,123,4.3,-2
15.8,123,4,-1.9
15.8,123,3.7,-1.7
15.9,123,3.4,-1.5
15.9,123,3.2,-1.2
15.9,123,3,-0.8
15.9,123,2.8,-0.5
15.9,123,2.6,-0.1
15.9,124,2.4,0.2
15.9,124,2.3,0.4
15.9,124,2.1,0.6
15.9,124,2,0.7
15.9,124,1.9,0.7
15.9,124,1.8,0.5
15.9,124,1.7,0.2
15.9,124,1.5,-0.3
15.9,124,1.3,-0.9
15.9,124,1.1,-1.6
15.9,124,0.8,-2.2
15.9,124,0.4,-2.9
15.9,124,0,-3.4
15.9,124,-0.4,-3.8
15.9,124,-0.9,-4.1
15.9,124,-1.3,-4.3
15.9,124,-1.6,-4.3
15.9,124,-1.9,-4.3
15.9,124,-2,-4.1
15.9,124,-2.2,-3.9
16,124,-2.4,-3.7
16,124,-2.6,-3.5
16,124,-2.9,-3.2
16,124,-3.2,-2.9
16,124,-3.6,-2.6
16,124,-4,-2.2
16,124,-4.3,-1.9
16,124,-4.6,-1.6
16,124,-4.9,-1.4
16,124,-5.1,-1.2
16,124,-5.2,-1
16,124,-5.2,-0.8
16,125,-5.1,-0.5
16,125,-4.9,-0.2
16,125,-4.5,0.3
16,125,-4.1,0.8
16,125,-3.6,1.3
16,125,-3.1,1.8
16,125,-2.6,2.1
16,125,-2.1,2.3
16,125,-1.8,2.4
16,125,-1.5,2.3
16,125,-1.4,2.2
16,125,-1.3,1.9
16,125,-1.4,1.6
16.1,125,-1.5,1.3
16.1,125,-1.6,1
16.1,125,-1.8,0.7
16.1,125,-2,0.3
16.1,125,-2.3,0
16.1,125,-2.6,-0.2
16.1,125,-2.9,-0.5
16.1,125,-3.2,-0.6
16.1,125,-3.4,-0.7
16.1,125,-3.5,-0.7
16.1,125,-3.5,-0.6
16.1,125,-3.4,-0.5
16.1,125,-3.1,-0.4
16.1,125,-2.8,-0.2
16.1,125,-2.3,-0.1
16.1,125,-1.8,0.2
16.1,125,-1.4,0.4
16.1,125,-1,0.8
16.1,125,-0.6,1.2
16.1,126,-0.3,1.6
16.1,126,-0.1,2.2
16.1,126,0,2.8
16.1,126,0,3.3
16.1,126,0,3.6
16.1,126,-0.2,3.8
16.2,126,-0.5,3.7
16.2,126,-0.8,3.5
16.2,126,-1.1,3.1
16.2,126,-1.5,2.6
16.2,126,-1.8,2
16.2,126,-2.3,1.4
16.2,126,-2.9,0.7
16.2,126,-3.8,-0.1
16.2,126,-4.9,-1
16.2,126,-6.2,-2.1
16.2,126,-7.5,-3.4
16.2,126,-8.6,-4.8
16.2,126,-9.6,-6.6
16.2,126,-10.4,-8.8
16.2,126,-11.2,-11.5
16.2,126,-11.9,-15
16.2,126,-12.6,-19.4
16.2,126,-13.3,-24.8
16.2,126,-14.1,-31.5
16.2,126,-15.2,-39.4
16.2,126,-16.7,-48.8
16.2,126,-18.8,-59.6
16.2,126,-21.3,-71.6
16.2,126,-24.2,-84.6
16.2,126,-27.4,-98.3
16.3,126,-30.9,-112.4
16.3,127,-34.5,-126.4
16.3,127,-38.1,-139.8
16.3,127,-41.6,-152.2
16.3,127,-44.8,-163.2
16.3,127,-47.6,-172.5
16.3,127,-49.9,-179.7
16.3,127,-51.5,-184.5
16.3,127,-52.3,-186.8
16.3,127,-52.3,-186.4
16.3,127,-51.4,-183.5
16.3,127,-49.7,-178.3
16.3,127,-47.2,-170.9
16.3,127,-43.8,-161.6
16.3,127,-39.7,-150.6
16.3,127,-35,-138.2
16.3,127,-29.9,-124.8
16.3,127,-24.5,-110.7
16.3,127,-19.1,-96.2
16.3,127,-13.8,-81.6
16.3,127,-8.5,-66.9
16.3,127,-3.3,-52.3
16.3,127,1.7,-38
16.3,127,6.6,-24
16.3,127,11.3,-10.4
16.4,127,16,2.8
16.4,127,20.6,15.4
16.4,127,25,27.4
16.4,127,29.2,38.8
16.4,127,33.1,49.5
16.4,127,36.7,59.6
16.4,127,39.9,69.1
16.4,127,42.8,78.1
16.4,128,45.4,86.6
16.4,128,47.8,94.8
16.4,128,50,102.6
16.4,128,52.3,110.3
16.4,128,54.5,117.8
16.4,128,56.9,125.2
16.4,128,59.4,132.4
16.4,128,61.9,139.3
16.4,128,64.6,145.9
16.4,128,67.5,152.2
16.4,128,70.5,158.3
16.4,128,73.6,163.9
16.4,128,76.5,169.1
16.4,128,79.3,173.7
16.4,128,81.7,177.6
16.4,128,83.7,180.9
16.4,128,85.3,183.6
16.5,128,86.3,185.7
16.5,128,86.9,187.1
16.5,128,87,187.9
16.5,128,86.7,188.2
16.5,128,86,188.2
16.5,128,85.1,187.9
16.5,128,83.8,187.2
16.5,128,82.2,186.1
16.5,128,80.3,184.8
16.5,128,78.2,183.2
16.5,128,76,181.4
16.5,128,73.6,179.3
16.5,128,71.2,177
16.5,128,68.8,174.5
16.5,128,66.2,171.8
16.5,129,63.5,168.9
16.5,129,60.8,165.9
16.5,129,57.9,162.8
16.5,129,54.7,159.4
16.5,129,51.4,155.8
16.5,129,47.9,152
16.5,129,44.1,147.8
16.5,129,40.2,143.2
16.5,129,36.1,138.3
16.5,129,31.8,132.8
16.6,129,27.3,126.9
16.6,129,22.8,120.7
16.6,129,18.4,114.3
16.6,129,14,107.8
16.6,129,9.7,101.4
16.6,129,5.6,95.1
16.6,129,1.6,88.9
16.6,129,-2.3,82.9
16.6,129,-6,76.9
16.6,129,-9.5,71.1
16.6,129,-12.8,65.3
16.6,129,-15.8,59.5
16.6,129,-18.5,53.9
16.6,129,-20.9,48.3
16.6,129,-23.1,42.8
16.6,129,-25.3,37.3
16.6,129,-27.3,31.8
16.6,129,-29.4,26.4
16.6,129,-31.6,21.1
16.6,129,-34,15.7
16.6,129,-36.4,10.5
16.6,129,-39,5.4
16.6,130,-41.5,0.4
16.6,130,-44,-4.4
16.6,130,-46.4,-9
16.7,130,-48.6,-13.3
16.7,130,-50.4,-17.3
16.7,130,-51.9,-21
16.7,130,-53.2,-24.5
16.7,130,-54.2,-27.8
16.7,130,-55.1,-31.1
16.7,130,-56,-34.5
16.7,130,-56.9,-38.1
16.7,130,-57.9,-41.9
16.7,130,-58.9,-45.8
16.7,130,-59.9,-49.9
16.7,130,-60.8,-54
16.7,130,-61.6,-58.1
16.7,130,-62.5,-62.3
16.7,130,-63.3,-66.4
16.7,130,-64.2,-70.4
16.7,130,-65.1,-74.2
16.7,130,-66,-77.6
16.7,130,-66.9,-80.8
16.7,130,-67.5,-83.6
16.7,130,-68,-86
16.7,130,-68.1,-87.9
16.7,130,-67.9,-89.3
16.7,130,-67.5,-90.3
16.7,130,-67,-91.1
16.8,130,-66.4,-91.6
16.8,130,-65.7,-92
16.8,130,-64.9,-92.4
16.8,130,-64,-92.6
16.8,131,-63.1,-92.7
16.8,131,-62,-92.7
16.8,131,-60.8,-92.7
16.8,131,-59.6,-92.6
16.8,131,-58.5,-92.8
16.8,131,-57.3,-93.3
16.8,131,-56.2,-94
16.8,131,-55,-95
16.8,131,-53.7,-96.1
16.8,131,-52.2,-97.2
16.8,131,-50.5,-98.2
16.8,131,-48.6,-99
16.8,131,-46.5,-99.6
16.8,131,-44.3,-100
16.8,131,-42.2,-100.2
16.8,131,-40,-100
16.8,131,-37.9,-99.6
16.8,131,-35.8,-98.8
16.8,131,-33.7,-97.6
16.8,131,-31.5,-96.2
16.8,131,-29.3,-94.4
16.9,131,-26.9,-92.3
16.9,131,-24.4,-90
16.9,131,-21.8,-87.6
16.9,131,-19.2,-85.3
16.9,131,-16.7,-83
16.9,131,-14.5,-81
16.9,131,-12.4,-79.1
16.9,131,-10.4,-77.5
16.9,131,-8.7,-76.1
16.9,131,-7.1,-74.9
16.9,131,-5.7,-73.7
16.9,132,-4.3,-72.6
16.9,132,-3,-71.7
16.9,132,-1.8,-70.9
16.9,132,-0.7,-70.2
16.9,132,0.1,-69.7
16.9,132,0.8,-69.2
16.9,132,1.1,-68.8
16.9,132,1.1,-68.3
16.9,132,1,-67.8
16.9,132,0.8,-67.1
16.9,132,0.5,-66.2
16.9,132,0.3,-65.2
16.9,132,0.1,-63.9
16.9,132,0.1,-62.5
17,132,0.1,-61
17,132,0.4,-59.4
17,132,0.7,-57.6
17,132,1.1,-55.8
17,132,1.5,-54
17,132,1.9,-52.2
17,132,2.2,-50.5
17,132,2.5,-48.8
17,132,2.8,-47.2
17,132,3.2,-45.6
17,132,3.7,-44.1
17,132,4.1,-42.7
17,132,4.6,-41.4
17,132,5.2,-39.9
17,132,5.6,-38.4
17,132,6,-36.8
17,132,6.3,-35.2
17,132,6.5,-33.6
17,133,6.7,-31.9
17,133,7,-30.3
17,133,7.3,-28.8
17,133,7.8,-27.3
17,133,8.3,-26.1
17,133,8.7,-24.9
17,133,8.9,-23.9
17.1,133,9.2,-22.8
17.1,133,9.5,-21.7
17.1,133,9.9,-20.7
17.1,133,10.3,-19.6
17.1,133,10.9,-18.4
17.1,133,11.6,-17.2
17.1,133,12.4,-16
17.1,133,13.3,-14.6
17.1,133,14.3,-13.3
17.1,133,15.3,-11.9
17.1,133,16.2,-10.6
17.1,133,17.1,-9.2
17.1,133,17.9,-7.9
17.1,133,18.6,-6.6
17.1,133,19.2,-5.2
17.1,133,19.7,-3.8
17.1,133,20.3,-2.2
17.1,133,21.1,-0.5
17.1,133,21.8,1.4
17.1,133,22.6,3.4
17.1,133,23.3,5.6
17.1,133,23.9,7.8
17.1,133,24.6,10.1
17.1,133,25.3,12.5
17.1,133,26.1,15
17.2,134,26.9,17.4
17.2,134,27.9,19.8
17.2,134,29,22.2
17.2,134,30.1,24.5
17.2,134,31.3,26.8
17.2,134,32.4,28.9
17.2,134,33.4,31
17.2,134,34.4,33
17.2,134,35.2,34.9
17.2,134,36.1,36.9
17.2,134,36.9,39
17.2,134,37.6,41.3
17.2,134,38.2,43.8
17.2,134,38.8,46.5
17.2,134,39.2,49.4
17.2,134,39.6,52.6
17.2,134,39.9,56
17.2,134,40.1,59.7
17.2,134,40.3,63.5
17.2,134,40.4,67.5
17.2,134,40.4,71.5
17.2,134,40.3,75.6
17.2,134,40,79.7
17.2,134,39.4,83.6
17.2,134,38.7,87.5
17.3,134,37.8,91.1
17.3,134,36.9,94.6
17.3,134,36,98
17.3,134,35.3,101.1
17.3,134,34.8,104
17.3,134,34.5,106.6
17.3,134,34.5,109
17.3,135,34.9,111
17.3,135,35.4,112.6
17.3,135,36.1,113.7
17.3,135,36.9,114.2
17.3,135,37.7,114
17.3,135,38.5,113.1
17.3,135,39.1,111.3
17.3,135,39.6,108.9
17.3,135,39.9,105.6
17.3,135,40,101.7
17.3,135,39.8,97.2
17.3,135,39.3,92.1
17.3,135,38.6,86.6
17.3,135,37.7,80.9
17.3,135,36.6,75.2
17.3,135,35.3,69.5
17.3,135,34,63.9
17.3,135,32.7,58.7
17.4,135,31.5,53.7
17.4,135,30.4,49.2
17.4,135,29.5,45.1
17.4,135,28.5,41.2
17.4,135,27.6,37.6
17.4,135,26.7,34.3
17.4,135,25.7,31.1
17.4,135,24.7,28.2
17.4,135,23.6,25.3
17.4,135,22.5,22.5
17.4,135,21.2,19.7
17.4,135,19.9,16.9
17.4,135,18.5,14
17.4,135,17.1,11.1
17.4,136,15.5,8.1
17.4,136,13.9,5.2
17.4,136,12.2,2.3
17.4,136,10.6,-0.6
17.4,136,8.9,-3.4
17.4,136,7.3,-6.1
17.4,136,5.6,-8.7
17.4,136,4.1,-11.3
17.4,136,2.6,-13.8
17.4,136,1.2,-16.4
17.4,136,-0.1,-18.9
17.5,136,-1.3,-21.4
17.5,136,-2.5,-24
17.5,136,-3.7,-26.7
17.5,136,-4.8,-29.6
17.5,136,-5.9,-32.5
17.5,136,-6.9,-35.6
17.5,136,-8,-38.8
17.5,136,-9,-42
17.5,136,-10,-45.3
17.5,136,-11,-48.5
17.5,136,-12,-51.7
17.5,136,-12.9,-54.8
17.5,136,-14,-57.8
17.5,136,-15,-60.6
17.5,136,-16.1,-63.3
17.5,136,-17.3,-65.7
17.5,136,-18.6,-67.9
17.5,136,-20,-70
17.5,136,-21.5,-71.9
17.5,136,-23,-73.7
17.5,136,-24.6,-75.3
17.5,137,-26.1,-76.9
17.5,137,-27.7,-78.4
17.5,137,-29.2,-79.7
17.5,137,-30.6,-80.8
17.6,137,-32,-81.7
17.6,137,-33.4,-82.5
17.6,137,-34.7,-83
17.6,137,-35.8,-83.3
17.6,137,-36.9,-83.4
17.6,137,-37.9,-83.2
17.6,137,-38.7,-82.9
17.6,137,-39.4,-82.4
17.6,137,-39.9,-81.8
17.6,137,-40.2,-81.1
17.6,137,-40.4,-80.4
17.6,137,-40.4,-79.6
17.6,137,-40.3,-78.8
17.6,137,-40,-78.1
17.6,137,-39.6,-77.3
17.6,137,-39.1,-76.5
17.6,137,-38.4,-75.5
17.6,137,-37.6,-74.6
17.6,137,-36.7,-73.5
17.6,137,-35.8,-72.4
17.6,137,-34.8,-71.2
17.6,137,-33.8,-69.8
17.6,137,-32.8,-68.4
17.6,137,-31.8,-66.8
17.6,137,-30.9,-65.1
17.7,137,-29.9,-63.2
17.7,137,-29,-61.1
17.7,137,-28.1,-59
17.7,138,-27.2,-56.7
17.7,138,-26.3,-54.3
17.7,138,-25.4,-52
17.7,138,-24.5,-49.7
17.7,138,-23.5,-47.5
17.7,138,-22.6,-45.3
17.7,138,-21.8,-43.2
17.7,138,-21,-41.1
17.7,138,-20.3,-39
17.7,138,-19.5,-36.8
17.7,138,-18.8,-34.6
17.7,138,-17.9,-32.4
17.7,138,-17,-30.2
17.7,138,-16.1,-28.1
17.7,138,-15,-26
17.7,138,-14,-23.9
17.7,138,-12.9,-21.9
17.7,138,-11.9,-19.7
17.7,138,-10.9,-17.5
17.7,138,-10.1,-15.2
17.7,138,-9.4,-12.8
17.7,138,-8.9,-10.4
17.8,138,-8.5,-8.1
17.8,138,-8.1,-5.9
17.8,138,-7.9,-3.9
17.8,138,-7.7,-2.1
17.8,138,-7.5,-0.4
17.8,138,-7.3,1.3
17.8,138,-7.1,2.9
17.8,138,-6.9,4.4
17.8,138,-6.7,6
17.8,138,-6.4,7.5
17.8,139,-6.2,9.1
17.8,139,-6,10.6
17.8,139,-5.9,12.2
17.8,139,-5.7,13.7
17.8,139,-5.6,15.2
17.8,139,-5.5,16.7
17.8,139,-5.3,18.1
17.8,139,-5.1,19.6
17.8,139,-4.9,21.1
17.8,139,-4.5,22.7
17.8,139,-4.2,24.2
17.8,139,-3.8,25.7
17.8,139,-3.5,27.2
17.8,139,-3.2,28.6
17.8,139,-2.9,29.9
17.9,139,-2.7,31.1
17.9,139,-2.4,32.2
17.9,139,-2.2,33.3
17.9,139,-1.8,34.4
17.9,139,-1.4,35.4
17.9,139,-1,36.4
17.9,139,-0.5,37.4
17.9,139,-0.1,38.3
17.9,139,0.3,39.1
17.9,139,0.6,39.8
17.9,139,0.8,40.3
17.9,139,1,40.8
17.9,139,1,41.1
17.9,139,1.1,41.4
17.9,139,1.1,41.6
17.9,139,1.2,41.8
17.9,139,1.3,41.9
17.9,140,1.5,42.1
17.9,140,1.7,42.3
17.9,140,2,42.5
17.9,140,2.3,42.8
17.9,140,2.7,43.1
17.9,140,3.2,43.5
17.9,140,3.7,44
17.9,140,4.2,44.5
18,140,4.8,45.2
18,140,5.2,45.8
18,140,5.6,46.5
18,140,5.9,47
18,140,6,47.5
18,140,6,47.9
18,140,5.9,48.1
18,140,5.8,48.3
18,140,5.7,48.5
18,140,5.6,48.7
18,140,5.5,48.7
18,140,5.3,48.6
18,140,5.1,48.4
18,140,4.8,47.9
18,140,4.5,47.3
18,140,4,46.5
18,140,3.5,45.6
18,140,2.8,44.6
18,140,2.2,43.5
18,140,1.6,42.5
18,140,1.2,41.6
18,140,1.1,40.9
18,140,1.4,40.4
18,140,2,40.1
18,141,2.8,39.8
18.1,141,3.8,39.7
18.1,141,4.9,39.6
18.1,141,6,39.5
18.1,141,7.2,39.5
18.1,141,8.4,39.5
18.1,141,9.5,39.4
18.1,141,10.5,39.3
18.1,141,11.5,39.2
18.1,141,12.4,39
18.1,141,13.2,38.8
18.1,141,13.8,38.5
18.1,141,14.1,38.3
18.1,141,14.3,37.9
18.1,141,14.3,37.6
18.1,141,14,37.1
18.1,141,13.6,36.5
18.1,141,12.9,36
18.1,141,12.2,35.3
18.1,141,11.4,34.7
18.1,141,10.6,34
18.1,141,9.8,33.3
18.1,141,8.9,32.7
18.1,141,8.1,32.1
18.1,141,7.4,31.6
18.1,141,6.8,31.1
18.2,141,6.3,30.5
18.2,141,6,29.9
18.2,141,5.8,29.2
18.2,141,5.8,28.4
18.2,141,5.8,27.6
18.2,141,5.9,26.7
18.2,142,6.2,25.9
18.2,142,6.6,25.1
18.2,142,7,24.3
18.2,142,7.6,23.6
18.2,142,8.1,23
18.2,142,8.6,22.3
18.2,142,9,21.7
18.2,142,9.3,20.9
18.2,142,9.3,20.1
18.2,142,9.3,19.2
18.2,142,9.1,18.3
18.2,142,8.9,17.3
18.2,142,8.6,16.3
18.2,142,8.3,15.3
18.2,142,7.9,14.2
18.2,142,7.4,13
18.2,142,6.9,11.8
18.2,142,6.3,10.6
18.2,142,5.6,9.3
18.3,142,4.8,8.1
18.3,142,4.1,7
18.3,142,3.5,6
18.3,142,3,5.1
18.3,142,2.6,4.4
18.3,142,2.3,3.8
18.3,142,2.1,3.2
18.3,142,2,2.6
18.3,142,1.9,2.1
18.3,142,1.8,1.7
18.3,142,1.7,1.3
18.3,142,1.7,0.9
18.3,142,1.6,0.5
18.3,143,1.7,0.1
18.3,143,1.7,-0.3
18.3,143,1.9,-0.7
18.3,143,2,-1.1
18.3,143,2.3,-1.6
18.3,143,2.5,-2.2
18.3,143,2.8,-2.9
18.3,143,3,-3.6
18.3,143,3.1,-4.4
18.3,143,3.2,-5.1
18.3,143,3.1,-5.8
18.3,143,3,-6.3
18.4,143,2.9,-6.8
18.4,143,2.7,-7.1
18.4,143,2.5,-7.4
18.4,143,2.4,-7.6
18.4,143,2.5,-7.7
18.4,143,2.6,-7.8
18.4,143,2.7,-8
18.4,143,3,-8.1
18.4,143,3.2,-8.2
18.4,143,3.5,-8.4
18.4,143,3.9,-8.5
18.4,143,4.3,-8.6
18.4,143,4.6,-8.7
18.4,143,5,-8.9
18.4,143,5.3,-9.1
18.4,143,5.4,-9.4
18.4,143,5.5,-9.8
18.4,143,5.4,-10.2
18.4,143,5.2,-10.5
18.4,143,4.9,-10.8
18.4,144,4.5,-11.1
18.4,144,3.9,-11.3
18.4,144,3.2,-11.4
18.4,144,2.4,-11.5
18.4,144,1.4,-11.6
18.5,144,0.4,-11.7
18.5,144,-0.6,-11.7
18.5,144,-1.6,-11.7
18.5,144,-2.6,-11.6
18.5,144,-3.6,-11.6
18.5,144,-4.5,-11.6
18.5,144,-5.4,-11.6
18.5,144,-6.3,-11.6
18.5,144,-7,-11.6
18.5,144,-7.6,-11.7
18.5,144,-8.1,-11.7
18.5,144,-8.4,-11.8
18.5,144,-8.6,-11.9
18.5,144,-8.7,-12
18.5,144,-8.5,-12.2
18.5,144,-8.3,-12.4
18.5,144,-7.8,-12.6
18.5,144,-7.3,-12.9
18.5,144,-6.8,-13.2
18.5,144,-6.2,-13.5
18.5,144,-5.6,-13.7
18.5,144,-5.1,-14
18.5,144,-4.6,-14.1
18.5,144,-4.1,-14.2
18.5,144,-3.7,-14.2
18.6,144,-3.3,-14
18.6,144,-2.8,-13.7
18.6,145,-2.4,-13.4
18.6,145,-2,-13.1
18.6,145,-1.7,-12.9
18.6,145,-1.5,-12.6
18.6,145,-1.3,-12.4
18.6,145,-1.2,-12.1
18.6,145,-1.3,-11.9
18.6,145,-1.4,-11.7
18.6,145,-1.5,-11.6
18.6,145,-1.7,-11.4
18.6,145,-1.8,-11.3
18.6,145,-1.9,-11.2
18.6,145,-1.9,-11.2
18.6,145,-1.9,-11.1
18.6,145,-2,-11.1
18.6,145,-1.9,-11
18.6,145,-1.9,-11
18.6,145,-1.9,-10.9
18.6,145,-1.8,-10.9
18.6,145,-1.7,-10.8
18.6,145,-1.6,-10.8
18.6,145,-1.5,-10.7
18.6,145,-1.5,-10.6
18.7,145,-1.5,-10.5
18.7,145,-1.6,-10.6
18.7,145,-1.7,-10.7
18.7,145,-1.9,-10.9
18.7,145,-2.1,-11.3
18.7,145,-2.4,-11.7
18.7,145,-2.7,-12.3
18.7,145,-3,-12.8
18.7,145,-3.3,-13.3
18.7,146,-3.6,-13.7
18.7,146,-4,-14
18.7,146,-4.3,-14.1
18.7,146,-4.7,-14.2
18.7,146,-5,-14.1
18.7,146,-5.1,-13.9
18.7,146,-5.2,-13.6
18.7,146,-5.1,-13.2
18.7,146,-5,-12.8
18.7,146,-4.7,-12.2
18.7,146,-4.4,-11.6
18.7,146,-4.1,-11
18.7,146,-3.8,-10.4
18.7,146,-3.4,-9.7
18.7,146,-3,-9
18.7,146,-2.6,-8.5
18.8,146,-2.2,-8
18.8,146,-1.8,-7.6
18.8,146,-1.5,-7.3
18.8,146,-1.4,-7
18.8,146,-1.4,-6.8
18.8,146,-1.6,-6.6
18.8,146,-1.9,-6.5
18.8,146,-2.3,-6.4
18.8,146,-2.7,-6.3
18.8,146,-3.1,-6.2
18.8,146,-3.4,-6.2
18.8,146,-3.6,-6.2
18.8,146,-3.6,-6.1
18.8,146,-3.5,-6.1
18.8,146,-3.3,-6
18.8,146,-2.9,-6
18.8,147,-2.4,-5.9
18.8,147,-1.8,-5.7
18.8,147,-1.2,-5.6
18.8,147,-0.5,-5.3
18.8,147,0.2,-5.1
18.8,147,0.9,-4.9
18.8,147,1.6,-4.6
18.8,147,2.2,-4.3
18.8,147,2.6,-4
18.9,147,2.9,-3.7
18.9,147,3.1,-3.3
18.9,147,3.2,-2.9
18.9,147,3.2,-2.4
18.9,147,3.1,-1.9
18.9,147,2.9,-1.5
18.9,147,2.7,-1
18.9,147,2.5,-0.7
18.9,147,2.3,-0.5
18.9,147,1.9,-0.5
18.9,147,1.5,-0.6
18.9,147,1,-0.9
18.9,147,0.4,-1.4
18.9,147,-0.2,-2
18.9,147,-0.8,-2.7
18.9,147,-1.2,-3.4
18.9,147,-1.4,-4.1
18.9,147,-1.5,-4.6
18.9,147,-1.4,-5
18.9,147,-1.1,-5.3
18.9,147,-0.7,-5.4
18.9,147,-0.1,-5.4
18.9,147,0.5,-5.3
18.9,148,1.2,-5
18.9,148,2,-4.7
19,148,2.6,-4.2
19,148,3.1,-3.7
19,148,3.5,-3.2
19,148,3.6,-2.6
19,148,3.7,-2
19,148,3.6,-1.5
19,148,3.4,-0.9
19,148,3.2,-0.4
19,148,3,0.1
19,148,2.8,0.6
19,148,2.7,1.1
19,148,2.7,1.6
19,148,2.8,2.1
19,148,2.9,2.6
19,148,3.2,3.1
19,148,3.4,3.6
19,148,3.7,4.1
19,148,4,4.5
19,148,4.3,4.8
19,148,4.5,5
19,148,4.7,5
19,148,4.7,4.9
19,148,4.6,4.7
19,148,4.5,4.4
19,148,4.2,4
19.1,148,4,3.6
19.1,148,3.6,3.2
19.1,148,3.3,2.8
19.1,148,3,2.4
19.1,148,2.7,2
19.1,149,2.4,1.7
19.1,149,2.1,1.4
19.1,149,1.9,1.3
19.1,149,1.8,1.3
19.1,149,1.6,1.3
19.1,149,1.5,1.5
19.1,149,1.4,1.7
19.1,149,1.4,2
19.1,149,1.6,2.4
19.1,149,1.8,2.8
19.1,149,2.1,3.2
19.1,149,2.4,3.5
19.1,149,2.7,3.8
19.1,149,3,4
19.1,149,3.3,4
19.1,149,3.5,3.9
19.1,149,3.7,3.7
19.1,149,3.9,3.4
19.1,149,4,3
19.1,149,4,2.5
19.2,149,3.9,1.9
19.2,149,3.7,1.3
19.2,149,3.4,0.7
19.2,149,3,0
19.2,149,2.6,-0.6
19.2,149,2.1,-1
19.2,149,1.7,-1.4
19.2,149,1.3,-1.6
19.2,149,0.9,-1.7
19.2,149,0.7,-1.7
19.2,149,0.6,-1.6
19.2,149,0.7,-1.5
19.2,150,0.9,-1.2
19.2,150,1.1,-0.9
19.2,150,1.5,-0.6
19.2,150,1.8,-0.3
19.2,150,2.1,0
19.2,150,2.4,0.2
19.2,150,2.6,0.3
19.2,150,2.7,0.4
19.2,150,2.8,0.4
19.2,150,2.8,0.4
19.2,150,2.7,0.3
19.2,150,2.5,0.2
19.2,150,2.2,0.1
19.3,150,1.8,-0.1
19.3,150,1.3,-0.2
19.3,150,0.8,-0.3
19.3,150,0.3,-0.5
19.3,150,-0.3,-0.6
19.3,150,-0.8,-0.6
19.3,150,-1.2,-0.4
19.3,150,-1.7,-0.2
19.3,150,-2.1,0.1
19.3,150,-2.5,0.4
19.3,150,-2.9,0.6
19.3,150,-3.3,0.8
19.3,150,-3.7,0.9
19.3,150,-4,0.9
19.3,150,-4.2,0.8
19.3,150,-4.3,0.7
19.3,150,-4.5,0.6
19.3,150,-4.5,0.3
19.3,150,-4.6,0.1
19.3,151,-4.7,-0.2
19.3,151,-4.8,-0.5
19.3,151,-4.9,-0.8
19.3,151,-5.1,-1.2
19.3,151,-5.3,-1.5
19.3,151,-5.6,-1.9
19.4,151,-5.9,-2.3
19.4,151,-6.3,-2.6
19.4,151,-6.5,-3.1
19.4,151,-6.6,-3.4
19.4,151,-6.5,-3.8
19.4,151,-6.1,-4.1
19.4,151,-5.6,-4.4
19.4,151,-4.9,-4.7
19.4,151,-4.1,-5
19.4,151,-3.3,-5.2
19.4,151,-2.6,-5.3
19.4,151,-1.9,-5.3
19.4,151,-1.2,-5.3
19.4,151,-0.7,-5.1
19.4,151,-0.2,-5
19.4,151,0.3,-4.8
19.4,151,0.6,-4.7
19.4,151,0.9,-4.6
19.4,151,1,-4.5
19.4,151,0.9,-4.4
19.4,151,0.7,-4.4
19.4,151,0.4,-4.3
19.4,151,0.1,-4.2
19.4,151,-0.1,-4
19.4,151,-0.3,-3.8
19.5,151,-0.5,-3.6
19.5,152,-0.5,-3.3
19.5,152,-0.6,-3
19.5,152,-0.6,-2.7
19.5,152,-0.6,-2.4
19.5,152,-0.5,-2
19.5,152,-0.3,-1.6
19.5,152,-0.1,-1.2
19.5,152,0.3,-0.7
19.5,152,0.6,-0.3
19.5,152,1,0.1
19.5,152,1.4,0.4
19.5,152,1.7,0.4
19.5,152,2,0.2
19.5,152,2.1,-0.3
19.5,152,2,-1
19.5,152,1.7,-1.8
19.5,152,1.3,-2.7
19.5,152,0.8,-3.6
19.5,152,0.3,-4.6
19.5,152,-0.2,-5.4
19.5,152,-0.5,-6.2
19.5,152,-0.8,-6.9
19.5,152,-1,-7.4
19.5,152,-1.1,-7.6
19.6,152,-1.1,-7.6
19.6,152,-1,-7.4
19.6,152,-0.7,-6.9
19.6,152,-0.4,-6.4
19.6,152,-0.1,-5.7
19.6,152,0.3,-5
19.6,152,0.6,-4.3
19.6,152,1,-3.6
19.6,153,1.2,-3.1
19.6,153,1.3,-2.6
19.6,153,1.4,-2.2
19.6,153,1.3,-2
19.6,153,1.1,-1.9
19.6,153,0.8,-2
19.6,153,0.4,-2.2
19.6,153,-0.1,-2.5
19.6,153,-0.6,-2.8
19.6,153,-1.2,-3.3
19.6,153,-1.7,-3.7
19.6,153,-2.2,-4.2
19.6,153,-2.7,-4.6
19.6,153,-3.2,-5
19.6,153,-3.7,-5.3
19.6,153,-4.2,-5.6
19.6,153,-4.6,-5.7
19.7,153,-5,-5.6
19.7,153,-5.3,-5.5
19.7,153,-5.6,-5.4
19.7,153,-5.9,-5.2
19.7,153,-6.1,-4.8
19.7,153,-6.2,-4.4
19.7,153,-6.2,-4
19.7,153,-6.2,-3.5
19.7,153,-6,-3
19.7,153,-5.7,-2.6
19.7,153,-5.4,-2.2
19.7,153,-5,-1.8
19.7,153,-4.6,-1.5
19.7,153,-4.2,-1.2
19.7,153,-3.7,-0.9
19.7,154,-3.2,-0.5
19.7,154,-2.7,0
19.7,154,-2.2,0.6
19.7,154,-1.8,1.2
19.7,154,-1.6,1.7
19.7,154,-1.6,2.2
19.7,154,-1.7,2.6
19.7,154,-1.9,2.9
19.7,154,-2.1,3.2
19.7,154,-2.1,3.4
19.8,154,-2.1,3.7
19.8,154,-1.9,3.9
19.8,154,-1.7,4.2
19.8,154,-1.3,4.5
19.8,154,-0.9,4.7
19.8,154,-0.3,4.9
19.8,154,0.3,5.2
19.8,154,0.9,5.5
19.8,154,1.5,5.8
19.8,154,2.1,6.1
19.8,154,2.6,6.4
19.8,154,3,6.6
19.8,154,3.2,6.6
19.8,154,3.3,6.6
19.8,154,3.3,6.4
19.8,154,3.2,6.1
19.8,154,3,5.8
19.8,154,2.7,5.4
19.8,154,2.3,4.9
19.8,154,1.9,4.5
19.8,154,1.5,4
19.8,154,1.1,3.6
19.8,155,0.9,3.3
19.8,155,0.8,3
19.8,155,0.7,2.8
19.9,155,0.7,2.5
19.9,155,0.7,2.2
19.9,155,0.7,1.8
19.9,155,0.6,1.4
19.9,155,0.5,1
19.9,155,0.2,0.5
19.9,155,-0.2,0.1
19.9,155,-0.8,-0.3
19.9,155,-1.4,-0.6
19.9,155,-2.1,-0.8
19.9,155,-2.8,-0.9
19.9,155,-3.3,-0.8
19.9,155,-3.7,-0.7
19.9,155,-3.9,-0.5
19.9,155,-3.9,-0.4
19.9,155,-3.8,-0.3
19.9,155,-3.5,-0.3
19.9,155,-3.1,-0.4
19.9,155,-2.7,-0.6
19.9,155,-2.2,-0.7
19.9,155,-1.7,-0.7
19.9,155,-1.1,-0.7
19.9,155,-0.5,-0.6
19.9,155,0.1,-0.5
19.9,155,0.7,-0.4
20,155,1.4,-0.3
20,155,2,-0.2
20,155,2.6,-0.2
20,155,3.3,-0.1
20,156,3.9,-0.1
20,156,4.6,-0.1
20,156,5.1,-0.2
20,156,5.6,-0.2
20,156,5.9,-0.3
20,156,6.1,-0.3
20,156,6.3,-0.1
20,156,6.3,0.1
20,156,6.3,0.3
20,156,6.2,0.7
20,156,6.1,1
20,156,6,1.4
20,156,5.9,1.8
20,156,5.8,2
20,156,5.6,2.2
20,156,5.4,2.3
20,156,5,2.2
20,156,4.6,2.1
20,156,4.1,1.9
20,156,3.6,1.7
20,156,3.2,1.6
20.1,156,2.8,1.6
20.1,156,2.6,1.7
20.1,156,2.4,1.9
20.1,156,2.3,2.2
20.1,156,2.3,2.4
20.1,156,2.4,2.6
20.1,156,2.5,2.7
20.1,156,2.7,2.8
20.1,156,2.8,2.7
20.1,156,2.9,2.5
20.1,156,3.1,2.2
20.1,157,3.3,1.9
20.1,157,3.5,1.5
20.1,157,3.6,1.1
20.1,157,3.8,0.5
20.1,157,3.8,-0.1
20.1,157,3.9,-0.8
20.1,157,3.9,-1.5
20.1,157,3.9,-2.2
20.1,157,3.8,-3
20.1,157,3.7,-3.7
20.1,157,3.5,-4.4
20.1,157,3.2,-5
20.1,157,2.8,-5.7
20.1,157,2.3,-6.3
20.2,157,1.6,-6.9
20.2,157,0.8,-7.4
20.2,157,0,-7.7
20.2,157,-0.9,-7.9
20.2,157,-1.9,-8.1
20.2,157,-2.8,-8.4
20.2,157,-3.9,-8.7
20.2,157,-4.9,-9.3
20.2,157,-5.8,-10.2
20.2,157,-6.6,-11.4
20.2,157,-7.1,-13.1
20.2,157,-7.6,-15.3
20.2,157,-8,-18.3
20.2,157,-8.6,-22.2
20.2,157,-9.4,-27.2
20.2,157,-10.4,-33.4
20.2,157,-11.5,-40.7
20.2,157,-12.8,-49.3
20.2,158,-14.4,-59
20.2,158,-16.5,-69.8
20.2,158,-18.8,-81.5
20.2,158,-21.4,-93.8
20.2,158,-24.2,-106.3
20.2,158,-27.1,-118.6
20.2,158,-30.2,-130.3
20.3,158,-33.4,-141.1
20.3,158,-36.6,-150.5
20.3,158,-39.6,-158.2
20.3,158,-42.4,-164
20.3,158,-44.7,-167.7
20.3,158,-46.6,-169.1
20.3,158,-48,-168.2
20.3,158,-48.8,-165
20.3,158,-49.2,-159.7
20.3,158,-49,-152.6
20.3,158,-48.4,-143.8
20.3,158,-47.2,-133.6
20.3,158,-45.5,-122.3
20.3,158,-43.3,-110.2
20.3,158,-40.8,-97.5
20.3,158,-37.9,-84.5
20.3,158,-34.6,-71.3
20.3,158,-31,-58.1
20.3,158,-27.1,-45.2
20.3,158,-23.1,-32.4
20.3,158,-19,-20.1
20.3,158,-14.8,-8.3
20.3,158,-10.7,3
20.3,158,-6.6,13.6
20.3,158,-2.6,23.7
20.4,159,1.4,33.2
20.4,159,5.3,42.2
20.4,159,9.2,50.6
20.4,159,12.9,58.5
20.4,159,16.4,65.9
20.4,159,19.6,72.7
20.4,159,22.6,79
20.4,159,25.3,85
20.4,159,27.8,90.7
20.4,159,30.1,96.1
20.4,159,32.3,101.3
20.4,159,34.3,106.3
20.4,159,36.3,111.1
20.4,159,38.2,115.7
20.4,159,40.2,120.2
20.4,159,42.1,124.4
20.4,159,43.9,128.3
20.4,159,45.6,131.8
20.4,159,47.2,135.1
20.4,159,48.7,138.1
20.4,159,50.1,140.7
20.4,159,51.2,143.1
20.4,159,52.1,145
20.4,159,52.6,146.6
20.4,159,52.9,147.7
20.5,159,52.8,148.4
20.5,159,52.5,148.8
20.5,159,51.9,148.8
20.5,159,51.1,148.6
20.5,159,50.2,148.1
20.5,159,49.1,147.5
20.5,159,48,146.6
20.5,160,47,145.6
20.5,160,46,144.5
20.5,160,45.1,143.2
20.5,160,44.3,141.9
20.5,160,43.6,140.4
20.5,160,42.8,138.6
20.5,160,42,136.5
20.5,160,41,134.1
20.5,160,40,131.4
20.5,160,39,128.7
20.5,160,38,125.8
20.5,160,37,122.9
20.5,160,36.1,120
20.5,160,35.2,116.9
20.5,160,34.2,113.6
20.5,160,33.1,110.2
20.5,160,32,106.7
20.5,160,30.9,103.2
20.6,160,30,99.7
20.6,160,29,96.3
20.6,160,28,92.9
20.6,160,26.9,89.5
20.6,160,25.6,86.1
20.6,160,24.2,82.7
20.6,160,22.6,79.2
20.6,160,21,75.7
20.6,160,19.3,72.2
20.6,160,17.7,68.7
20.6,160,16.1,65.2
20.6,160,14.5,61.7
20.6,160,13,58.3
20.6,160,11.6,55
20.6,161,10.4,51.8
20.6,161,9.5,48.6
20.6,161,8.7,45.5
20.6,161,8,42.4
20.6,161,7.3,39.1
20.6,161,6.4,35.8
20.6,161,5.4,32.3
20.6,161,4.2,28.7
20.6,161,2.8,25.1
20.6,161,1.2,21.4
20.6,161,-0.5,17.6
20.7,161,-2.3,13.9
20.7,161,-4.2,10.3
20.7,161,-6,6.8
20.7,161,-7.7,3.4
20.7,161,-9.2,0.3
20.7,161,-10.5,-2.7
20.7,161,-11.6,-5.6
20.7,161,-12.6,-8.5
20.7,161,-13.4,-11.3
20.7,161,-14,-14.1
20.7,161,-14.4,-16.9
20.7,161,-14.7,-19.5
20.7,161,-14.9,-22
20.7,161,-15.2,-24.4
20.7,161,-15.5,-26.7
20.7,161,-16,-28.9
20.7,161,-16.6,-31
20.7,161,-17.3,-32.9
20.7,161,-18.1,-34.6
20.7,161,-18.8,-36.1
20.7,161,-19.4,-37.4
20.7,162,-19.8,-38.6
20.7,162,-20.1,-39.6
20.7,162,-20.1,-40.5
20.7,162,-19.8,-41.4
20.8,162,-19.4,-42.3
20.8,162,-18.9,-43.2
20.8,162,-18.3,-44.2
20.8,162,-17.8,-45.3
20.8,162,-17.4,-46.6
20.8,162,-17.1,-47.9
20.8,162,-17,-49.4
20.8,162,-17,-51
20.8,162,-17.2,-52.8
20.8,162,-17.5,-54.6
20.8,162,-18,-56.6
20.8,162,-18.5,-58.6
20.8,162,-19,-60.5
20.8,162,-19.3,-62.3
20.8,162,-19.5,-63.8
20.8,162,-19.6,-65.3
20.8,162,-19.6,-66.6
20.8,162,-19.4,-67.8
20.8,162,-19.2,-69
20.8,162,-19,-70
20.8,162,-18.9,-71.1
20.8,162,-18.8,-72
20.8,162,-18.9,-72.9
20.8,162,-19.1,-73.7
20.8,162,-19.4,-74.4
20.9,162,-19.7,-74.9
20.9,162,-20.1,-75.3
20.9,162,-20.4,-75.6
20.9,163,-20.7,-75.6
20.9,163,-20.9,-75.5
20.9,163,-21,-75.3
20.9,163,-21,-74.9
20.9,163,-20.9,-74.4
20.9,163,-20.7,-73.8
20.9,163,-20.7,-73.3
20.9,163,-20.6,-72.9
20.9,163,-20.6,-72.5
20.9,163,-20.7,-72.2
20.9,163,-20.7,-72.1
20.9,163,-20.8,-72
20.9,163,-21,-72
20.9,163,-21.1,-72.2
20.9,163,-21.4,-72.4
20.9,163,-21.7,-72.6
20.9,163,-22,-72.8
20.9,163,-22.3,-73
20.9,163,-22.6,-73
20.9,163,-23,-72.8
20.9,163,-23.3,-72.5
20.9,163,-23.6,-72.1
21,163,-24,-71.6
21,163,-24.3,-71
21,163,-24.6,-70.4
21,163,-25,-69.8
21,163,-25.3,-69.2
21,163,-25.6,-68.5
21,163,-25.7,-67.8
21,163,-25.7,-66.9
21,163,-25.5,-66
21,163,-25.1,-65.1
21,164,-24.6,-64
21,164,-23.9,-63
21,164,-23.2,-61.8
21,164,-22.4,-60.7
21,164,-21.8,-59.6
21,164,-21.4,-58.6
21,164,-21.2,-57.5
21,164,-21,-56.5
21,164,-21,-55.4
21,164,-20.9,-54.3
21,164,-20.7,-53.1
21,164,-20.5,-51.9
21,164,-20.1,-50.5
21,164,-19.7,-49
21,164,-19.3,-47.4
21.1,164,-18.9,-45.8
21.1,164,-18.6,-44.1
21.1,164,-18.3,-42.3
21.1,164,-17.9,-40.4
21.1,164,-17.4,-38.3
21.1,164,-16.9,-36
21.1,164,-16.2,-33.6
21.1,164,-15.6,-30.8
21.1,164,-14.9,-27.9
21.1,164,-14.3,-24.7
21.1,164,-13.7,-21.2
21.1,164,-13.2,-17.5
21.1,164,-12.8,-13.6
21.1,164,-12.4,-9.4
21.1,164,-12.1,-5
21.1,164,-11.8,-0.5
21.1,164,-11.5,4.2
21.1,165,-11.1,9
21.1,165,-10.7,13.8
21.1,165,-10.3,18.6
21.1,165,-9.8,23.4
21.1,165,-9.1,28
21.1,165,-8.3,32.6
21.1,165,-7.2,37.1
21.1,165,-6,41.5
21.2,165,-4.6,45.7
21.2,165,-3,49.6
21.2,165,-1.3,53.2
21.2,165,0.5,56.4
21.2,165,2.4,59.1
21.2,165,4.4,61.2
21.2,165,6.5,62.6
21.2,165,8.6,63.4
21.2,165,10.6,63.4
21.2,165,12.7,62.8
21.2,165,14.7,61.5
21.2,165,16.6,59.5
21.2,165,18.2,56.9
21.2,165,19.6,53.8
21.2,165,20.7,50.4
21.2,165,21.5,46.7
21.2,165,22,42.9
21.2,165,22.3,39
21.2,165,22.4,35.3
21.2,165,22.4,31.8
21.2,165,22.4,28.6
21.2,165,22.5,25.7
21.2,165,22.7,23.3
21.2,165,22.9,21.3
21.2,166,23.2,19.7
21.3,166,23.5,18.5
21.3,166,23.7,17.5
21.3,166,24,16.8
21.3,166,24.3,16.3
21.3,166,24.6,15.9
21.3,166,24.9,15.5
21.3,166,25.2,15.1
21.3,166,25.5,14.6
21.3,166,25.7,14.1
21.3,166,25.7,13.4
21.3,166,25.7,12.7
21.3,166,25.5,11.8
21.3,166,25.2,10.7
21.3,166,24.8,9.6
21.3,166,24.3,8.3
21.3,166,23.7,6.9
21.3,166,23,5.3
21.3,166,22.3,3.7
21.3,166,21.6,2
21.3,166,20.9,0.3
21.3,166,20.3,-1.4
21.3,166,19.6,-3.1
21.3,166,19.1,-4.8
21.3,166,18.7,-6.6
21.3,166,18.4,-8.4
21.4,166,18.2,-10.3
21.4,166,18,-12.1
21.4,166,17.9,-14
21.4,166,17.6,-15.9
21.4,166,17.3,-17.8
21.4,166,16.7,-19.8
21.4,167,15.8,-22
21.4,167,14.5,-24.5
21.4,167,12.9,-27
21.4,167,11.1,-29.7
21.4,167,9.2,-32.3
21.4,167,7.3,-34.8
21.4,167,5.6,-37.2
21.4,167,4,-39.3
21.4,167,2.7,-41.2
21.4,167,1.5,-43
21.4,167,0.5,-44.6
21.4,167,-0.4,-46
21.4,167,-1.3,-47.2
21.4,167,-2,-48.1
21.4,167,-2.7,-48.9
21.4,167,-3.3,-49.4
21.4,167,-3.8,-49.7
21.4,167,-4.3,-49.8
21.4,167,-4.8,-49.8
21.5,167,-5.3,-49.7
21.5,167,-5.8,-49.6
21.5,167,-6.3,-49.5
21.5,167,-6.9,-49.4
21.5,167,-7.5,-49.2
21.5,167,-8,-48.9
21.5,167,-8.6,-48.5
21.5,167,-9.2,-48
21.5,167,-9.7,-47.3
21.5,167,-10.1,-46.6
21.5,167,-10.5,-45.8
21.5,167,-10.7,-44.8
21.5,167,-10.7,-43.9
21.5,168,-10.7,-42.9
21.5,168,-10.5,-41.8
21.5,168,-10.2,-40.7
21.5,168,-9.8,-39.6
21.5,168,-9.4,-38.3
21.5,168,-8.9,-37
21.5,168,-8.4,-35.6
21.5,168,-7.9,-34.1
21.5,168,-7.3,-32.6
21.5,168,-6.8,-31.1
21.5,168,-6.2,-29.6
21.5,168,-5.7,-28
21.6,168,-5.1,-26.4
21.6,168,-4.6,-24.6
21.6,168,-4,-22.8
21.6,168,-3.5,-20.9
21.6,168,-3,-19
21.6,168,-2.5,-17
21.6,168,-2.2,-15
21.6,168,-1.9,-13.2
21.6,168,-1.6,-11.3
21.6,168,-1.5,-9.6
21.6,168,-1.5,-7.9
21.6,168,-1.5,-6.3
21.6,168,-1.7,-4.8
21.6,168,-1.9,-3.4
21.6,168,-2.2,-2.2
21.6,168,-2.5,-1
21.6,168,-2.9,0.2
21.6,168,-3.1,1.3
21.6,168,-3.4,2.3
21.6,168,-3.5,3.4
21.6,169,-3.6,4.4
21.6,169,-3.6,5.5
21.6,169,-3.6,6.7
21.6,169,-3.4,7.9
21.6,169,-3.2,9.1
21.7,169,-2.9,10.5
21.7,169,-2.6,11.9
21.7,169,-2.2,13.4
21.7,169,-1.8,15.1
21.7,169,-1.2,16.8
21.7,169,-0.6,18.6
21.7,169,0.2,20.4
21.7,169,1,22.3
21.7,169,1.9,24.1
21.7,169,2.8,25.7
21.7,169,3.7,27.3
21.7,169,4.6,28.6
21.7,169,5.4,29.8
21.7,169,6.2,30.8
21.7,169,7,31.7
21.7,169,7.6,32.5
21.7,169,8.2,33.2
21.7,169,8.7,33.8
21.7,169,9.1,34.4
21.7,169,9.4,35.1
21.7,169,9.6,35.8
21.7,169,9.8,36.6
21.7,169,10,37.5
21.7,169,10.3,38.6
21.7,169,10.6,39.7
21.8,169,10.9,40.9
21.8,169,11.3,42.1
21.8,170,11.7,43.3
21.8,170,12.1,44.4
21.8,170,12.6,45.6
21.8,170,13.1,46.6
21.8,170,13.5,47.4
21.8,170,13.8,48.1
21.8,170,14.1,48.6
21.8,170,14.1,48.9
21.8,170,14,49.1
21.8,170,13.7,49.2
21.8,170,13.2,49.1
21.8,170,12.5,48.9
21.8,170,11.6,48.7
21.8,170,10.6,48.4
21.8,170,9.6,48.1
21.8,170,8.4,47.8
21.8,170,7.2,47.4
21.8,170,6,47.1
21.8,170,4.8,46.8
21.8,170,3.6,46.5
21.8,170,2.5,46.3
21.8,170,1.5,46.1
21.8,170,0.7,46
21.9,170,0.1,45.9
21.9,170,-0.3,45.8
21.9,170,-0.7,45.6
21.9,170,-1,45.3
21.9,170,-1.3,44.8
21.9,170,-1.5,44.2
21.9,170,-1.8,43.5
21.9,170,-2,42.6
21.9,170,-2.2,41.5
21.9,171,-2.2,40.3
21.9,171,-2,38.9
21.9,171,-1.6,37.5
21.9,171,-1.3,36
21.9,171,-1.1,34.4
21.9,171,-1.3,32.8
21.9,171,-1.9,31
21.9,171,-3,29.1
21.9,171,-4.7,27.1
21.9,171,-7,25.1
21.9,171,-9.8,23
21.9,171,-12.9,21
21.9,171,-16.2,19.3
21.9,171,-19.5,17.8
21.9,171,-22.6,16.6
21.9,171,-25.3,15.9
22,171,-27.6,15.5
22,171,-29.4,15.4
22,171,-30.5,15.6
22,171,-31.1,16.1
22,171,-31,16.8
22,171,-30.4,17.8
22,171,-29.2,18.8
22,171,-27.6,20
22,171,-25.6,21.2
22,171,-23.2,22.4
22,171,-20.7,23.5
22,171,-18,24.5
22,171,-15.2,25.4
22,171,-12.4,26.1
22,171,-9.6,26.7
22,171,-6.9,27.1
22,172,-4.4,27.4
22,172,-2.2,27.6
22,172,-0.2,27.6
22,172,1.6,27.5
22,172,3.1,27.2
22,172,4.4,26.8
22,172,5.5,26.2
22,172,6.5,25.5
22,172,7.3,24.7
22.1,172,8,23.9
22.1,172,8.5,22.9
22.1,172,9.1,21.9
22.1,172,9.5,21
22.1,172,10,20
22.1,172,10.4,18.9
22.1,172,10.7,17.8
22.1,172,10.9,16.8
22.1,172,11.1,15.7
22.1,172,11.2,14.8
22.1,172,11.4,14.1
22.1,172,11.7,13.4
22.1,172,11.9,13
22.1,172,12.1,12.6
22.1,172,12.3,12.2
22.1,172,12.5,12
22.1,172,12.7,11.7
22.1,172,13,11.4
22.1,172,13.4,11.2
22.1,172,13.8,11
22.1,172,14.4,10.8
22.1,172,14.9,10.7
22.1,172,15.5,10.6
22.1,173,16.1,10.4
22.1,173,16.5,10.1
22.2,173,16.9,9.7
22.2,173,17.1,9.2
22.2,173,17.2,8.4
22.2,173,17.2,7.6
22.2,173,17.1,6.6
22.2,173,17,5.5
22.2,173,16.8,4.4
22.2,173,16.6,3.3
22.2,173,16.3,2.1
22.2,173,16,1
22.2,173,15.6,-0.1
22.2,173,15.2,-1.2
22.2,173,14.8,-2.3
22.2,173,14.3,-3.4
22.2,173,13.6,-4.5
22.2,173,12.8,-5.5
22.2,173,12,-6.5
22.2,173,11.2,-7.4
22.2,173,10.5,-8
22.2,173,10,-8.5
22.2,173,9.7,-8.7
22.2,173,9.6,-8.7
22.2,173,9.7,-8.6
22.2,173,10,-8.2
22.2,173,10.3,-7.8
22.3,173,10.8,-7.2
22.3,173,11.3,-6.6
22.3,173,11.8,-5.8
22.3,173,12.2,-5.1
22.3,173,12.6,-4.3
22.3,174,13,-3.5
22.3,174,13.2,-2.8
22.3,174,13.2,-2.1
22.3,174,13.1,-1.6
22.3,174,12.8,-1.2
22.3,174,12.3,-0.9
22.3,174,11.7,-0.6
22.3,174,11.1,-0.5
22.3,174,10.5,-0.4
22.3,174,9.8,-0.5
22.3,174,9.2,-0.7
22.3,174,8.6,-1
22.3,174,7.9,-1.4
22.3,174,7.2,-2
22.3,174,6.4,-2.7
22.3,174,5.6,-3.5
22.3,174,4.8,-4.4
22.3,174,4,-5.3
22.3,174,3.3,-6.3
22.3,174,2.5,-7.1
22.4,174,1.8,-8
22.4,174,1.1,-8.7
22.4,174,0.4,-9.5
22.4,174,-0.3,-10.1
22.4,174,-1,-10.5
22.4,174,-1.6,-10.9
22.4,174,-2,-11.1
22.4,174,-2.2,-11.2
22.4,174,-2.3,-11.2
22.4,174,-2.1,-11.1
22.4,174,-1.7,-10.9
22.4,174,-1.2,-10.5
22.4,175,-0.5,-10.1
22.4,175,0.3,-9.6
22.4,175,1,-9.2
22.4,175,1.7,-8.9
22.4,175,2.3,-8.7
22.4,175,2.7,-8.5
22.4,175,3,-8.5
22.4,175,3.1,-8.5
22.4,175,3.2,-8.5
22.4,175,3.1,-8.5
22.4,175,2.9,-8.6
22.4,175,2.6,-8.8
22.4,175,2.1,-9.1
22.5,175,1.7,-9.5
22.5,175,1.1,-10
22.5,175,0.4,-10.6
22.5,175,-0.3,-11.2
22.5,175,-1.1,-11.7
22.5,175,-1.9,-12.2
22.5,175,-2.7,-12.6
22.5,175,-3.6,-13
22.5,175,-4.5,-13.4
22.5,175,-5.3,-13.6
22.5,175,-6,-13.7
22.5,175,-6.5,-13.7
22.5,175,-6.9,-13.6
22.5,175,-7.1,-13.3
22.5,175,-7.2,-12.9
22.5,175,-7.2,-12.4
22.5,175,-7.1,-11.9
22.5,175,-7,-11.3
22.5,175,-6.8,-10.8
22.5,176,-6.6,-10.3
22.5,176,-6.4,-9.9
22.5,176,-6.2,-9.6
22.5,176,-6.1,-9.5
22.5,176,-6.1,-9.4
22.5,176,-6.1,-9.4
22.6,176,-6.3,-9.5
22.6,176,-6.4,-9.7
22.6,176,-6.5,-9.8
22.6,176,-6.6,-9.9
22.6,176,-6.6,-9.9
22.6,176,-6.5,-9.9
22.6,176,-6.5,-9.8
22.6,176,-6.5,-9.6
22.6,176,-6.6,-9.4
22.6,176,-6.7,-9.1
22.6,176,-6.9,-8.7
22.6,176,-7.2,-8.3
22.6,176,-7.6,-7.9
22.6,176,-8.1,-7.6
22.6,176,-8.8,-7.3
22.6,176,-9.5,-7.2
22.6,176,-10.3,-7.1
22.6,176,-11.1,-7.2
22.6,176,-11.7,-7.4
22.6,176,-12.3,-7.7
22.6,176,-12.8,-8.1
22.6,176,-13.2,-8.6
22.6,176,-13.4,-9.1
22.6,176,-13.5,-9.6
22.6,176,-13.4,-10.1
22.7,176,-13.2,-10.7
22.7,177,-13,-11.2
22.7,177,-12.6,-11.8
22.7,177,-12.3,-12.4
22.7,177,-11.9,-12.9
22.7,177,-11.6,-13.3
22.7,177,-11.4,-13.6
22.7,177,-11.2,-13.7
22.7,177,-11,-13.6
22.7,177,-10.8,-13.3
22.7,177,-10.6,-12.9
22.7,177,-10.6,-12.4
22.7,177,-10.6,-11.8
22.7,177,-10.8,-11.2
22.7,177,-11,-10.7
22.7,177,-11.1,-10.2
22.7,177,-11.3,-9.7
22.7,177,-11.3,-9.2
22.7,177,-11.3,-8.7
22.7,177,-11.2,-8.3
22.7,177,-11.2,-8
22.7,177,-11.2,-7.8
22.7,177,-11.3,-7.8
22.7,177,-11.5,-7.9
22.7,177,-11.8,-8.2
22.8,177,-12.1,-8.6
22.8,177,-12.3,-8.9
22.8,177,-12.6,-9.2
22.8,177,-12.7,-9.5
22.8,177,-12.9,-9.6
22.8,177,-13,-9.7
22.8,177,-13,-9.7
22.8,177,-13,-9.6
22.8,178,-12.9,-9.5
22.8,178,-12.7,-9.4
22.8,178,-12.4,-9.2
22.8,178,-11.9,-8.9
22.8,178,-11.3,-8.6
22.8,178,-10.5,-8.3
22.8,178,-9.6,-8
22.8,178,-8.7,-7.8
22.8,178,-7.9,-7.7
22.8,178,-7.1,-7.5
22.8,178,-6.4,-7.4
22.8,178,-5.8,-7.3
22.8,178,-5.4,-7.1
22.8,178,-5,-6.9
22.8,178,-4.7,-6.5
22.8,178,-4.4,-6
22.8,178,-4.1,-5.4
22.9,178,-3.9,-4.7
22.9,178,-3.8,-4.1
22.9,178,-3.7,-3.4
22.9,178,-3.7,-2.7
22.9,178,-3.7,-1.9
22.9,178,-3.6,-1.1
22.9,178,-3.6,-0.3
22.9,178,-3.5,0.4
22.9,178,-3.4,1
22.9,178,-3.3,1.5
22.9,178,-3.2,1.9
22.9,178,-3,2.1
22.9,178,-2.8,2
22.9,178,-2.5,1.8
22.9,178,-2.2,1.4
22.9,179,-1.9,0.8
22.9,179,-1.5,0.1
22.9,179,-1.2,-0.6
22.9,179,-1,-1.4
22.9,179,-0.7,-2.2
22.9,179,-0.5,-3.1
22.9,179,-0.3,-3.9
22.9,179,-0.1,-4.7
22.9,179,0.1,-5.5
22.9,179,0.3,-6
23,179,0.6,-6.4
23,179,1,-6.5
23,179,1.4,-6.4
23,179,1.9,-5.9
23,179,2.5,-5.3
23,179,3.1,-4.5
23,179,3.6,-3.6
23,179,4.1,-2.6
23,179,4.5,-1.6
23,179,4.9,-0.6
23,179,5.3,0.4
23,179,5.6,1.2
23,179,5.9,2
23,179,6,2.7
23,179,6,3.1
23,179,5.8,3.5
23,179,5.4,3.6
23,179,4.9,3.5
23,179,4.2,3.2
23,179,3.4,2.8
23,179,2.7,2.3
23,179,2,1.9
23,180,1.5,1.4
23,180,1.2,1
23,180,1.1,0.7
23.1,180,1.2,0.5
23.1,180,1.5,0.5
23.1,180,2,0.6
23.1,180,2.8,0.8
23.1,180,3.7,1.1
23.1,180,4.7,1.5
23.1,180,5.7,1.9
23.1,180,6.7,2.3
23.1,180,7.6,2.6
23.1,180,8.4,2.9
23.1,180,9,3.2
23.1,180,9.4,3.3
23.1,180,9.5,3.4
23.1,180,9.5,3.3
23.1,180,9.4,3.2
23.1,180,9.2,3
23.1,180,8.9,2.8
23.1,180,8.5,2.5
23.1,180,8.1,2.2
23.1,180,7.7,1.9
23.1,180,7.2,1.7
23.1,180,6.8,1.5
23.1,180,6.4,1.4
23.1,180,6.1,1.4
23.1,180,5.9,1.5
23.2,180,5.7,1.5
23.2,180,5.6,1.6
23.2,180,5.4,1.8
23.2,180,5.3,1.9
23.2,181,5.1,2.1
23.2,181,4.8,2.2
23.2,181,4.4,2.3
23.2,181,4,2.4
23.2,181,3.5,2.4
23.2,181,2.9,2.3
23.2,181,2.4,2.2
23.2,181,1.9,2.1
23.2,181,1.4,2
23.2,181,1.1,1.9
23.2,181,0.7,1.9
23.2,181,0.5,1.9
23.2,181,0.3,1.8
23.2,181,0.2,1.8
23.2,181,0.1,1.7
23.2,181,0.1,1.5
23.2,181,0.1,1.2
23.2,181,0.1,0.9
23.2,181,0.2,0.5
23.2,181,0.3,0.2
23.2,181,0.5,-0.2
23.3,181,0.7,-0.5
23.3,181,0.9,-0.8
23.3,181,1.2,-1.1
23.3,181,1.5,-1.3
23.3,181,1.8,-1.3
23.3,181,2,-1.2
23.3,181,2.1,-1.1
23.3,181,2.2,-0.9
23.3,181,2.2,-0.7
23.3,181,2,-0.6
23.3,181,1.9,-0.4
23.3,182,1.7,-0.4
23.3,182,1.6,-0.3
23.3,182,1.5,-0.3
23.3,182,1.5,-0.2
23.3,182,1.6,-0.1
23.3,182,1.6,0.1
23.3,182,1.7,0.2
23.3,182,1.7,0.3
23.3,182,1.8,0.3
23.3,182,1.8,0.3
23.3,182,1.8,0.2
23.3,182,1.7,0
23.3,182,1.5,-0.4
23.3,182,1.2,-0.7
23.4,182,0.9,-1.2
23.4,182,0.5,-1.7
23.4,182,0.1,-2.2
23.4,182,-0.3,-2.7
23.4,182,-0.7,-3.3
23.4,182,-1,-3.9
23.4,182,-1.1,-4.4
23.4,182,-1.1,-4.8
23.4,182,-0.9,-5.2
23.4,182,-0.6,-5.3
23.4,182,-0.1,-5.4
23.4,182,0.4,-5.3
23.4,182,1,-5.1
23.4,182,1.6,-4.8
23.4,182,2.2,-4.4
23.4,182,2.6,-4
23.4,182,2.9,-3.5
23.4,182,3.1,-3.1
23.4,183,3.1,-2.9
23.4,183,3.1,-2.7
23.4,183,2.9,-2.6
23.4,183,2.6,-2.6
23.4,183,2.3,-2.5
23.4,183,1.9,-2.3
23.4,183,1.5,-2
23.5,183,1.1,-1.7
23.5,183,0.8,-1.2
23.5,183,0.3,-0.8
23.5,183,-0.1,-0.5
23.5,183,-0.5,-0.2
23.5,183,-1,-0.1
23.5,183,-1.4,-0.1
23.5,183,-1.8,-0.2
23.5,183,-2.1,-0.3
23.5,183,-2.4,-0.5
23.5,183,-2.6,-0.6
23.5,183,-2.7,-0.8
23.5,183,-2.6,-1
23.5,183,-2.5,-1.1
23.5,183,-2.4,-1.3
23.5,183,-2.1,-1.6
23.5,183,-1.9,-1.9
23.5,183,-1.6,-2.2
23.5,183,-1.4,-2.6
23.5,183,-1.3,-3
23.5,183,-1.2,-3.5
23.5,183,-1.2,-4
23.5,183,-1.2,-4.5
23.5,183,-1.2,-4.9
23.5,183,-1.1,-5.2
23.6,184,-1,-5.3
23.6,184,-0.8,-5.3
23.6,184,-0.6,-5.1
23.6,184,-0.4,-4.7
23.6,184,-0.2,-4.1
23.6,184,0,-3.5
23.6,184,0.1,-2.8
23.6,184,0.1,-2.1
23.6,184,0,-1.4
23.6,184,0,-0.7
23.6,184,-0.1,-0.1
23.6,184,-0.3,0.3
23.6,184,-0.4,0.8
23.6,184,-0.5,1.1
23.6,184,-0.6,1.4
23.6,184,-0.7,1.5
23.6,184,-0.9,1.6
23.6,184,-1.2,1.6
23.6,184,-1.4,1.5
23.6,184,-1.6,1.3
23.6,184,-1.8,1.1
23.6,184,-2,0.9
23.6,184,-2,0.6
23.6,184,-2,0.4
23.6,184,-2,0.2
23.7,184,-1.8,0
23.7,184,-1.6,-0.1
23.7,184,-1.5,-0.2
23.7,184,-1.4,-0.3
23.7,184,-1.4,-0.4
23.7,184,-1.5,-0.6
23.7,184,-1.8,-0.8
23.7,185,-2.2,-1
23.7,185,-2.8,-1.2
23.7,185,-3.4,-1.3
23.7,185,-4,-1.4
23.7,185,-4.6,-1.4
23.7,185,-5.1,-1.3
23.7,185,-5.6,-1
23.7,185,-5.9,-0.6
23.7,185,-6.1,-0.1
23.7,185,-6.1,0.4
23.7,185,-5.9,1
23.7,185,-5.4,1.7
23.7,185,-4.6,2.5
23.7,185,-3.7,3.2
23.7,185,-2.7,3.9
23.7,185,-1.7,4.4
23.7,185,-0.7,4.9
23.7,185,0.2,5.1
23.8,185,1.1,5.2
23.8,185,1.8,5.1
23.8,185,2.5,4.8
23.8,185,3.1,4.3
23.8,185,3.5,3.7
23.8,185,3.8,3.1
23.8,185,3.9,2.4
23.8,185,3.9,1.6
23.8,185,3.8,0.8
23.8,185,3.5,0.1
23.8,185,3.2,-0.7
23.8,185,2.8,-1.5
23.8,185,2.2,-2.3
23.8,185,1.6,-3.2
23.8,186,0.8,-4.1
23.8,186,0,-5
23.8,186,-1,-5.8
23.8,186,-1.9,-6.5
23.8,186,-2.8,-7.1
23.8,186,-3.7,-7.5
23.8,186,-4.5,-7.7
23.8,186,-5.4,-7.9
23.8,186,-6.2,-8
23.8,186,-7,-8.2
23.8,186,-7.6,-8.6
23.9,186,-8.1,-9.2
23.9,186,-8.6,-10.2
23.9,186,-9,-11.7
23.9,186,-9.7,-13.9
23.9,186,-10.5,-16.9
23.9,186,-11.7,-20.9
23.9,186,-13,-26
23.9,186,-14.5,-32.3
23.9,186,-16.1,-39.8
23.9,186,-17.9,-48.5
23.9,186,-19.8,-58.4
23.9,186,-21.8,-69.5
23.9,186,-24,-81.5
23.9,186,-26.4,-94.3
23.9,186,-28.9,-107.5
23.9,186,-31.4,-120.8
23.9,186,-34,-133.7
23.9,186,-36.5,-146
23.9,186,-38.8,-157.1
23.9,186,-41,-166.6
23.9,186,-42.7,-174.1
23.9,187,-43.9,-179.4
23.9,187,-44.7,-182.2
23.9,187,-45.1,-182.6
23.9,187,-45.1,-180.5
24,187,-44.7,-176.1
24,187,-43.9,-169.3
24,187,-42.7,-160.4
24,187,-41,-149.6
24,187,-38.7,-137.1
24,187,-36.1,-123.4
24,187,-33,-108.9
24,187,-29.5,-93.9
24,187,-25.7,-78.7
24,187,-21.5,-63.7
24,187,-17.1,-49
24,187,-12.5,-34.8
24,187,-7.6,-21.2
24,187,-2.6,-8.4
24,187,2.6,3.5
24,187,7.7,14.6
24,187,12.7,24.8
24,187,17.5,34.2
24,187,22.1,42.7
24,187,26.4,50.6
24,187,30.3,57.9
24,187,33.9,64.7
24,187,37.3,71.2
24,187,40.6,77.5
24,187,43.8,83.6
24.1,187,46.9,89.6
24.1,187,49.9,95.6
24.1,187,52.9,101.7
24.1,188,55.8,107.7
24.1,188,58.4,113.5
24.1,188,60.7,119.3
24.1,188,62.7,124.9
24.1,188,64.3,130.3
24.1,188,65.6,135.4
24.1,188,66.6,140.3
24.1,188,67.1,144.9
24.1,188,67.4,149.2
24.1,188,67.5,153.2
24.1,188,67.5,156.8
24.1,188,67.4,160.1
24.1,188,67.3,163
24.1,188,67.3,165.6
24.1,188,67.3,167.8
24.1,188,67.3,169.7
24.1,188,67.4,171.4
24.1,188,67.6,172.7
24.1,188,67.7,173.7
24.1,188,67.7,174.4
24.1,188,67.5,174.6
24.1,188,67,174.5
24.2,188,66.2,173.8
24.2,188,65,172.8
24.2,188,63.3,171.4
24.2,188,61.3,169.7
24.2,188,59,167.8
24.2,188,56.6,165.8
24.2,188,54.1,163.8
24.2,188,51.7,161.6
24.2,188,49.3,159.3
24.2,188,47.1,156.9
24.2,189,44.8,154.2
24.2,189,42.4,151.1
24.2,189,39.9,147.8
24.2,189,37.2,144.1
24.2,189,34.4,140
24.2,189,31.5,135.7
24.2,189,28.4,131
24.2,189,25.3,126
24.2,189,22.1,120.8
24.2,189,19,115.4
24.2,189,15.9,109.8
24.2,189,12.8,104.1
24.2,189,9.7,98.1
24.2,189,6.6,92
24.2,189,3.4,85.8
24.3,189,0.2,79.4
24.3,189,-3.1,73.1
24.3,189,-6.3,66.7
24.3,189,-9.4,60.4
24.3,189,-12.4,54.1
24.3,189,-15.3,48
24.3,189,-17.9,42.1
24.3,189,-20.4,36.4
24.3,189,-22.5,31
24.3,189,-24.3,25.8
24.3,189,-25.8,20.9
24.3,189,-27,16.1
24.3,189,-28,11.4
24.3,189,-28.9,6.8
24.3,189,-29.7,2.3
24.3,189,-30.4,-2
24.3,189,-31.1,-6.2
24.3,190,-31.9,-10.3
24.3,190,-32.8,-14.4
24.3,190,-33.9,-18.3
24.3,190,-35.1,-22.1
24.3,190,-36.4,-25.7
24.3,190,-37.6,-29.1
24.3,190,-38.8,-32.4
24.3,190,-39.9,-35.5
24.4,190,-40.8,-38.6
24.4,190,-41.7,-41.6
24.4,190,-42.5,-44.5
24.4,190,-43.2,-47.5
24.4,190,-43.9,-50.3
24.4,190,-44.5,-52.9
24.4,190,-45,-55.3
24.4,190,-45.3,-57.5
24.4,190,-45.5,-59.5
24.4,190,-45.6,-61.3
24.4,190,-45.5,-63.1
24.4,190,-45.3,-64.8
24.4,190,-44.9,-66.6
24.4,190,-44.3,-68.3
24.4,190,-43.7,-69.9
24.4,190,-43.1,-71.5
24.4,190,-42.6,-73.1
24.4,190,-42.2,-74.4
24.4,190,-41.7,-75.7
24.4,190,-41.3,-76.8
24.4,190,-40.7,-77.8
24.4,190,-40,-78.8
24.4,190,-39.3,-79.7
24.4,190,-38.6,-80.5
24.4,191,-38,-81.4
24.5,191,-37.3,-82.1
24.5,191,-36.6,-82.7
24.5,191,-35.9,-83.3
24.5,191,-35.1,-83.7
24.5,191,-34.5,-84.2
24.5,191,-33.9,-84.7
24.5,191,-33.5,-85.3
24.5,191,-33.2,-86
24.5,191,-33,-86.7
24.5,191,-32.8,-87.3
24.5,191,-32.5,-87.9
24.5,191,-32.1,-88.3
24.5,191,-31.5,-88.7
24.5,191,-30.8,-88.9
24.5,191,-30,-89.1
24.5,191,-29.1,-89.1
24.5,191,-28.1,-88.9
24.5,191,-27,-88.6
24.5,191,-25.9,-88
24.5,191,-24.7,-87.2
24.5,191,-23.4,-86.1
24.5,191,-22,-84.9
24.5,191,-20.5,-83.6
24.5,191,-19,-82.1
24.5,191,-17.4,-80.5
24.6,191,-15.7,-78.7
24.6,191,-13.9,-76.8
24.6,191,-12,-74.6
24.6,191,-10,-72.3
24.6,191,-8,-69.7
24.6,191,-5.9,-67.1
24.6,192,-3.9,-64.5
24.6,192,-1.8,-61.9
24.6,192,0.1,-59.5
24.6,192,2,-57.2
24.6,192,3.6,-54.9
24.6,192,5.1,-52.8
24.6,192,6.4,-50.7
24.6,192,7.7,-48.8
24.6,192,8.8,-46.9
24.6,192,9.9,-45.2
24.6,192,10.8,-43.8
24.6,192,11.5,-42.5
24.6,192,12.1,-41.6
24.6,192,12.3,-40.9
24.6,192,12.2,-40.4
24.6,192,11.9,-39.9
24.6,192,11.4,-39.3
24.6,192,11,-38.6
24.6,192,10.6,-37.7
24.7,192,10.3,-36.5
24.7,192,10.2,-34.9
24.7,192,10.2,-33
24.7,192,10.4,-30.7
24.7,192,10.7,-28
24.7,192,11,-25
24.7,192,11.5,-21.6
24.7,192,11.9,-18
24.7,192,12.3,-14.2
24.7,192,12.6,-10.2
24.7,192,12.8,-6.2
24.7,192,13,-2
24.7,192,13.3,2.3
24.7,193,13.7,6.8
24.7,193,14.1,11.2
24.7,193,14.7,15.8
24.7,193,15.3,20.3
24.7,193,16,24.8
24.7,193,16.8,29.4
24.7,193,17.5,34
24.7,193,18.3,38.7
24.7,193,19,43.4
24.7,193,19.7,48.2
24.7,193,20.4,53.1
24.7,193,20.9,57.9
24.8,193,21.4,62.5
24.8,193,21.8,67
24.8,193,22.2,71.1
24.8,193,22.5,74.7
24.8,193,22.8,77.8
24.8,193,23.1,80.3
24.8,193,23.4,81.9
24.8,193,23.8,82.6
24.8,193,24.2,82.3
24.8,193,24.6,81
24.8,193,25.1,78.6
24.8,193,25.5,75.3
24.8,193,26,71.1
24.8,193,26.3,66
24.8,193,26.5,60.2
24.8,193,26.5,53.8
24.8,193,26.2,47
24.8,193,25.5,39.9
24.8,193,24.6,32.7
24.8,193,23.5,25.6
24.8,194,22.3,18.8
24.8,194,20.9,12.4
24.8,194,19.5,6.5
24.8,194,18.2,1.1
24.8,194,16.9,-3.7
24.9,194,15.6,-7.9
24.9,194,14.5,-11.6
24.9,194,13.5,-14.8
24.9,194,12.6,-17.7
24.9,194,11.8,-20.1
24.9,194,11.1,-22.2
24.9,194,10.6,-24
24.9,194,10.2,-25.5
24.9,194,10,-26.8
24.9,194,9.9,-27.8
24.9,194,9.8,-28.7
24.9,194,9.7,-29.5
24.9,194,9.5,-30.3
24.9,194,9.2,-31.2
24.9,194,8.8,-32.3
24.9,194,8.3,-33.4
24.9,194,7.7,-34.7
24.9,194,7,-36.1
24.9,194,6.3,-37.6
24.9,194,5.4,-39.3
24.9,194,4.4,-41.1
24.9,194,3.2,-43
24.9,194,1.9,-45.1
24.9,194,0.6,-47.4
24.9,194,-1,-49.9
25,194,-2.6,-52.4
25,194,-4.3,-55
25,195,-6,-57.6
25,195,-7.9,-60.2
25,195,-9.7,-62.8
25,195,-11.6,-65.2
25,195,-13.5,-67.4
25,195,-15.3,-69.5
25,195,-17,-71.5
25,195,-18.6,-73.3
25,195,-19.9,-74.9
25,195,-21.1,-76.3
25,195,-22.1,-77.4
25,195,-22.9,-78.4
25,195,-23.6,-79.2
25,195,-24.1,-79.8
25,195,-24.6,-80.1
25,195,-24.9,-80.2
25,195,-25.1,-80
25,195,-25.3,-79.7
25,195,-25.5,-79.1
25,195,-25.7,-78.4
25,195,-25.8,-77.5
25,195,-25.6,-76.3
25,195,-25,-74.9
25.1,195,-24.1,-73.3
25.1,195,-22.9,-71.5
25.1,195,-21.4,-69.5
25.1,195,-19.8,-67.5
25.1,195,-18.1,-65.5
25.1,195,-16.5,-63.7
25.1,195,-15.1,-62
25.1,195,-14,-60.3
25.1,195,-13.1,-58.7
25.1,196,-12.4,-57.1
25.1,196,-11.9,-55.4
25.1,196,-11.7,-53.7
25.1,196,-11.6,-51.9
25.1,196,-11.7,-50
25.1,196,-11.8,-48.1
25.1,196,-12,-46.1
25.1,196,-12.2,-44.1
25.1,196,-12.4,-42
25.1,196,-12.6,-39.8
25.1,196,-12.8,-37.6
25.1,196,-13.1,-35.2
25.1,196,-13.4,-32.8
25.1,196,-13.6,-30.3
25.1,196,-13.9,-27.8
25.1,196,-14.1,-25.2
25.2,196,-14.2,-22.6
25.2,196,-14.3,-20
25.2,196,-14.3,-17.4
25.2,196,-14.2,-14.9
25.2,196,-14.1,-12.3
25.2,196,-14.1,-9.9
25.2,196,-14,-7.5
25.2,196,-13.9,-5.2
25.2,196,-13.8,-3
25.2,196,-13.8,-0.9
25.2,196,-13.7,1.1
25.2,196,-13.6,3
25.2,196,-13.3,4.9
25.2,196,-12.9,6.7
25.2,196,-12.4,8.4
25.2,196,-11.8,10
25.2,197,-11,11.5
25.2,197,-10.2,12.9
25.2,197,-9.2,14.2
25.2,197,-8.1,15.5
25.2,197,-7,16.7
25.2,197,-5.7,18
25.2,197,-4.4,19.4
25.2,197,-3.2,20.9
25.2,197,-2,22.3
25.3,197,-0.8,23.9
25.3,197,0.2,25.4
25.3,197,1.1,26.9
25.3,197,1.9,28.3
25.3,197,2.5,29.6
25.3,197,2.9,30.9
25.3,197,3.3,32.1
25.3,197,3.5,33.2
25.3,197,3.7,34.3
25.3,197,3.8,35.4
25.3,197,3.8,36.5
25.3,197,3.8,37.7
25.3,197,3.8,38.9
25.3,197,3.9,40.1
25.3,197,4.2,41.3
25.3,197,4.5,42.6
25.3,197,5,43.7
25.3,197,5.5,44.8
25.3,197,6.1,45.8
25.3,197,6.6,46.6
25.3,197,7.1,47.4
25.3,197,7.5,48.2
25.3,197,8,48.9
25.3,198,8.4,49.6
25.3,198,8.8,50.4
25.4,198,9.2,51.2
25.4,198,9.6,52
25.4,198,9.9,52.8
25.4,198,10.2,53.6
25.4,198,10.4,54.4
25.4,198,10.5,55.1
25.4,198,10.6,55.7
25.4,198,10.6,56.2
25.4,198,10.5,56.6
25.4,198,10.3,56.9
25.4,198,10.2,57.2
25.4,198,10,57.4
25.4,198,9.9,57.7
25.4,198,9.8,58.1
25.4,198,9.9,58.4
25.4,198,10,58.8
25.4,198,10.1,59
25.4,198,10.3,59
25.4,198,10.5,58.8
25.4,198,10.7,58.4
25.4,198,10.8,57.8
25.4,198,11,57
25.4,198,11,56.2
25.4,198,11,55.3
25.4,198,10.7,54.3
25.5,198,10.4,53.3
25.5,198,9.9,52.3
25.5,198,9.4,51.3
25.5,198,8.7,50.4
25.5,198,8,49.6
25.5,199,7.1,48.8
25.5,199,6.2,48.1
25.5,199,5.3,47.4
25.5,199,4.3,46.9
25.5,199,3.3,46.4
25.5,199,2.5,46.1
25.5,199,2,45.9
25.5,199,1.7,45.9
25.5,199,1.8,46
25.5,199,2.1,46.2
25.5,199,2.8,46.7
25.5,199,3.8,47.2
25.5,199,5,47.9
25.5,199,6.3,48.7
25.5,199,7.7,49.5
25.5,199,9.1,50.2
25.5,199,10.4,50.8
25.5,199,11.6,51.3
25.5,199,12.6,51.5
25.5,199,13.4,51.5
25.6,199,14,51.3
25.6,199,14.4,50.8
25.6,199,14.7,50
25.6,199,14.8,49
25.6,199,14.7,47.8
25.6,199,14.6,46.5
25.6,199,14.2,45
25.6,199,13.8,43.4
25.6,199,13.3,41.8
25.6,199,12.6,40.2
25.6,199,12,38.7
25.6,199,11.3,37.3
25.6,200,10.6,36
25.6,200,10,34.9
25.6,200,9.5,33.8
25.6,200,9,32.8
25.6,200,8.7,31.8
25.6,200,8.4,31
25.6,200,8.2,30.2
25.6,200,8.2,29.5
25.6,200,8.4,28.9
25.6,200,8.6,28.2
25.6,200,9,27.6
25.6,200,9.4,26.8
25.6,200,9.9,26
25.7,200,10.3,25
25.7,200,10.6,24
25.7,200,10.8,22.8
25.7,200,10.9,21.7
25.7,200,10.9,20.4
25.7,200,10.8,19.2
25.7,200,10.6,18
25.7,200,10.4,16.9
25.7,200,10.2,15.9
25.7,200,10,15
25.7,200,9.7,14.3
25.7,200,9.5,13.7
25.7,200,9.1,13.2
25.7,200,8.7,12.8
25.7,200,8.3,12.6
25.7,200,7.9,12.5
25.7,200,7.5,12.5
25.7,200,7.1,12.4
25.7,200,6.7,12.3
25.7,201,6.3,12.2
25.7,201,5.8,12.1
25.7,201,5.4,11.9
25.7,201,4.9,11.6
25.7,201,4.4,11.2
25.7,201,3.9,10.7
25.8,201,3.4,10.1
25.8,201,3,9.3
25.8,201,2.4,8.3
25.8,201,1.9,7.1
25.8,201,1.4,5.7
25.8,201,0.9,4.3
25.8,201,0.5,2.8
25.8,201,0.1,1.4
25.8,201,-0.1,0
25.8,201,-0.4,-1.2
25.8,201,-0.5,-2.3
25.8,201,-0.7,-3.4
25.8,201,-0.8,-4.4
25.8,201,-1,-5.3
25.8,201,-1,-6.1
25.8,201,-1,-6.9
25.8,201,-0.9,-7.5
25.8,201,-0.8,-8.2
25.8,201,-0.6,-8.8
25.8,201,-0.5,-9.4
25.8,201,-0.4,-10
25.8,201,-0.5,-10.5
25.8,201,-0.7,-11
25.8,201,-1,-11.5
25.8,201,-1.5,-11.9
25.9,201,-2,-12.4
25.9,202,-2.5,-12.8
25.9,202,-3,-13.2
25.9,202,-3.3,-13.6
25.9,202,-3.6,-14
25.9,202,-3.8,-14.3
25.9,202,-3.9,-14.7
25.9,202,-3.9,-15.1
25.9,202,-3.9,-15.5
25.9,202,-3.7,-15.8
25.9,202,-3.5,-16.1
25.9,202,-3.2,-16.3
25.9,202,-3,-16.5
25.9,202,-2.8,-16.6
25.9,202,-2.7,-16.8
25.9,202,-2.7,-16.9
25.9,202,-2.8,-17
25.9,202,-3,-17
25.9,202,-3.3,-17.1
25.9,202,-3.6,-17.1
25.9,202,-3.9,-17.1
25.9,202,-4.2,-17.1
25.9,202,-4.4,-17.2
25.9,202,-4.7,-17.3
25.9,202,-5,-17.4
26,202,-5.4,-17.5
26,202,-5.8,-17.7
26,202,-6.3,-18
26,202,-6.9,-18.2
26,202,-7.5,-18.3
26,202,-8,-18.4
26,202,-8.5,-18.5
26,202,-8.9,-18.4
26,203,-9.2,-18.3
26,203,-9.5,-18.2
26,203,-9.6,-18
26,203,-9.8,-17.8
26,203,-9.8,-17.5
26,203,-9.7,-17.2
26,203,-9.4,-16.8
26,203,-9.1,-16.6
26,203,-8.7,-16.4
26,203,-8.2,-16.4
26,203,-7.6,-16.5
26,203,-7,-16.7
26,203,-6.4,-16.9
26,203,-5.8,-17.1
26,203,-5.2,-17.4
26,203,-4.7,-17.6
26,203,-4.2,-17.8
26.1,203,-3.8,-17.9
26.1,203,-3.4,-17.9
26.1,203,-3,-17.7
26.1,203,-2.6,-17.3
26.1,203,-2.2,-16.8
26.1,203,-1.9,-16.3
26.1,203,-1.6,-15.7
26.1,203,-1.4,-15.2
26.1,203,-1.4,-14.7
26.1,203,-1.5,-14.4
26.1,203,-1.8,-14.1
26.1,203,-2.1,-14
26.1,203,-2.4,-13.9
26.1,203,-2.8,-13.9
26.1,203,-3.1,-14
26.1,204,-3.4,-14.1
26.1,204,-3.5,-14.4
26.1,204,-3.6,-14.7
26.1,204,-3.5,-15
26.1,204,-3.3,-15.4
26.1,204,-3,-15.7
26.1,204,-2.6,-16
26.1,204,-2.3,-16.1
26.1,204,-1.9,-16
26.1,204,-1.6,-15.8
26.2,204,-1.3,-15.4
26.2,204,-1.2,-14.7
26.2,204,-1.1,-14
26.2,204,-1.2,-13.1
26.2,204,-1.4,-12.1
26.2,204,-1.7,-11.2
26.2,204,-1.9,-10.3
26.2,204,-2.1,-9.5
26.2,204,-2.3,-8.8
26.2,204,-2.4,-8.3
26.2,204,-2.5,-7.9
26.2,204,-2.5,-7.7
26.2,204,-2.6,-7.7
26.2,204,-2.6,-7.7
26.2,204,-2.7,-7.8
26.2,204,-2.8,-7.9
26.2,204,-2.8,-8.1
26.2,204,-2.8,-8.3
26.2,204,-2.6,-8.5
26.2,204,-2.3,-8.6
26.2,204,-1.9,-8.8
26.2,204,-1.4,-8.8
26.2,205,-0.9,-8.7
26.2,205,-0.2,-8.5
26.2,205,0.4,-8.1
26.3,205,1,-7.6
26.3,205,1.4,-7
26.3,205,1.8,-6.4
26.3,205,1.9,-5.7
26.3,205,2,-5.1
26.3,205,2,-4.6
26.3,205,1.8,-4.1
26.3,205,1.7,-3.8
26.3,205,1.5,-3.6
26.3,205,1.4,-3.4
26.3,205,1.4,-3.4
26.3,205,1.6,-3.4
26.3,205,1.9,-3.6
26.3,205,2.3,-3.9
26.3,205,2.8,-4.3
26.3,205,3.3,-4.8
26.3,205,3.9,-5.3
26.3,205,4.5,-5.7
26.3,205,5,-6.1
26.3,205,5.5,-6.4
26.3,205,5.8,-6.6
26.3,205,6,-6.8
26.3,205,6,-6.8
26.3,205,5.9,-6.8
26.3,205,5.5,-6.8
26.4,205,4.8,-6.6
26.4,205,3.9,-6.4
26.4,205,2.9,-6
26.4,205,1.9,-5.5
26.4,206,0.8,-4.8
26.4,206,-0.1,-3.9
26.4,206,-1,-3
26.4,206,-1.7,-2
26.4,206,-2.2,-1
26.4,206,-2.5,0
26.4,206,-2.4,1
26.4,206,-2.1,1.9
26.4,206,-1.6,2.6
26.4,206,-0.9,3.1
26.4,206,-0.2,3.5
26.4,206,0.5,3.6
26.4,206,1.2,3.6
26.4,206,1.8,3.6
26.4,206,2.2,3.5
26.4,206,2.6,3.4
26.4,206,2.8,3.3
26.4,206,2.8,3.2
26.4,206,2.7,3.1
26.4,206,2.4,3.1
26.4,206,1.9,3.2
26.5,206,1.4,3.3
26.5,206,0.8,3.5
26.5,206,0.2,3.8
26.5,206,-0.5,4
26.5,206,-1.2,4.2
26.5,206,-2,4.3
26.5,206,-2.7,4.3
26.5,206,-3.4,4.3
26.5,206,-4.1,4.2
26.5,206,-4.8,3.9
26.5,206,-5.3,3.6
26.5,207,-5.8,3.2
26.5,207,-6.2,2.7
26.5,207,-6.5,2.1
26.5,207,-6.7,1.6
26.5,207,-6.9,1.2
26.5,207,-7,0.8
26.5,207,-7,0.6
26.5,207,-6.9,0.4
26.5,207,-6.7,0.3
26.5,207,-6.4,0.1
26.5,207,-6.1,0
26.5,207,-5.7,0
26.5,207,-5.2,0
26.5,207,-4.6,0
26.6,207,-4,0.2
26.6,207,-3.4,0.4
26.6,207,-2.7,0.7
26.6,207,-2.1,1.1
26.6,207,-1.5,1.5
26.6,207,-0.9,1.8
26.6,207,-0.3,2.1
26.6,207,0.2,2.2
26.6,207,0.6,2.2
26.6,207,0.9,2
26.6,207,1.1,1.6
26.6,207,1.2,1.1
26.6,207,1.3,0.5
26.6,207,1.2,-0.2
26.6,207,0.9,-0.9
26.6,207,0.6,-1.7
26.6,207,0.2,-2.4
26.6,207,-0.2,-2.9
26.6,208,-0.7,-3.4
26.6,208,-1.1,-3.7
26.6,208,-1.4,-3.8
26.6,208,-1.6,-3.9
26.6,208,-1.7,-3.8
26.6,208,-1.8,-3.7
26.6,208,-1.8,-3.7
26.7,208,-1.8,-3.6
26.7,208,-1.7,-3.7
26.7,208,-1.6,-3.8
26.7,208,-1.4,-3.9
26.7,208,-1.3,-4
26.7,208,-1.1,-4.1
26.7,208,-0.8,-4.1
26.7,208,-0.6,-4.2
26.7,208,-0.4,-4.3
26.7,208,-0.2,-4.5
26.7,208,-0.1,-4.7
26.7,208,0.1,-5
26.7,208,0.3,-5.4
26.7,208,0.5,-5.8
26.7,208,0.8,-6.2
26.7,208,1,-6.7
26.7,208,1.3,-7.1
26.7,208,1.6,-7.3
26.7,208,1.9,-7.5
26.7,208,2.2,-7.5
26.7,208,2.4,-7.3
26.7,208,2.5,-7.1
26.7,208,2.6,-6.9
26.7,208,2.6,-6.7
26.7,208,2.5,-6.6
26.8,209,2.4,-6.5
26.8,209,2.2,-6.4
26.8,209,1.9,-6.4
26.8,209,1.6,-6.5
26.8,209,1.3,-6.6
26.8,209,1.1,-6.7
26.8,209,0.9,-6.8
26.8,209,0.8,-6.8
26.8,209,0.8,-6.8
26.8,209,0.8,-6.7
26.8,209,0.9,-6.5
26.8,209,0.9,-6.2
26.8,209,0.9,-5.8
26.8,209,0.9,-5.4
26.8,209,0.8,-4.9
26.8,209,0.6,-4.4
26.8,209,0.4,-3.9
26.8,209,0.1,-3.4
26.8,209,-0.1,-2.8
26.8,209,-0.3,-2.3
26.8,209,-0.5,-1.7
26.8,209,-0.7,-1.1
26.8,209,-0.9,-0.4
26.8,209,-1.1,0.1
26.8,209,-1.3,0.6
26.9,209,-1.5,0.9
26.9,209,-1.7,1.1
26.9,209,-1.9,1.2
26.9,209,-2,1.2
26.9,209,-2,1.2
26.9,209,-1.8,1.2
26.9,209,-1.5,1.1
26.9,210,-1.1,1.1
26.9,210,-0.6,1.1
26.9,210,-0.1,1.1
26.9,210,0.6,1.2
26.9,210,1.2,1.3
26.9,210,2,1.5
26.9,210,2.7,1.7
26.9,210,3.3,2.1
26.9,210,3.8,2.5
26.9,210,4.1,2.9
26.9,210,4.2,3.3
26.9,210,4.1,3.6
26.9,210,3.8,3.9
26.9,210,3.3,4
26.9,210,2.7,4.1
26.9,210,2,3.9
26.9,210,1.1,3.5
26.9,210,0.1,2.8
27,210,-1.1,1.9
27,210,-2.4,0.9
27,210,-3.8,-0.4
27,210,-5.1,-1.8
27,210,-6.4,-3.4
27,210,-7.5,-5.4
27,210,-8.6,-7.6
27,210,-9.8,-10.4
27,210,-10.9,-13.7
27,210,-12,-17.8
27,210,-13.3,-22.8
27,210,-14.8,-28.9
27,210,-16.5,-36.3
27,210,-18.5,-44.8
27,211,-20.9,-54.7
27,211,-23.5,-65.7
27,211,-26.4,-77.9
27,211,-29.7,-91
27,211,-33.4,-104.7
27,211,-37.2,-118.6
27,211,-41.3,-132.3
27,211,-45.5,-145.5
27,211,-49.8,-157.7
27,211,-53.9,-168.5
27,211,-57.4,-177.4
27.1,211,-60.4,-184.1
27.1,211,-62.5,-188.5
27.1,211,-63.8,-190.4
27.1,211,-64.1,-189.8
