0,0,0,0
0,0,-0.2,-0.2
0,0,1.3,1.3
0,0,15.3,15.9
0,0,62.6,65.4
0,0,156,163.3
0,0,288,301.5
0,0,443.9,464.8
0,0,615.5,644.4
0,0,796.3,833.9
0,0,975.7,1021.8
0,0,1141.3,1195.1
0,0,1283.4,1343.9
0.1,0,1396.5,1462.3
0.1,0,1477.4,1547.1
0.1,0,1524.8,1597
0.1,0,1537.3,1610.3
0.1,0,1514.6,1586.9
0.1,0,1460.3,1530.4
0.1,0,1380.6,1447.3
0.1,0,1279.9,1342.2
0.1,0,1160.7,1217.6
0.1,0,1027.7,1078.6
0.1,0,888.2,932.7
0.1,0,747.4,785.5
0.1,0,607,638.8
0.1,0,469.2,494.8
0.1,0,338.4,358.1
0.1,0,217.8,232.1
0.1,0,107.3,116.5
0.1,0,6.4,10.8
0.1,0,-84,-83.9
0.1,1,-162.9,-166.9
0.1,1,-231.5,-239.3
0.1,1,-291.7,-303
0.1,1,-344.5,-359
0.1,1,-390.5,-407.8
0.1,1,-430.7,-450.6
0.2,1,-466.6,-488.7
0.2,1,-499.5,-523.5
0.2,1,-530.4,-556.1
0.2,1,-559.6,-586.8
0.2,1,-587,-615.8
0.2,1,-613.4,-643.6
0.2,1,-639.5,-671.2
0.2,1,-665,-698.4
0.2,1,-689.1,-724.2
0.2,1,-711.8,-748.6
0.2,1,-733.9,-772.5
0.2,1,-755.5,-795.8
0.2,1,-775.3,-817.3
0.2,1,-792.8,-836.2
0.2,1,-808.8,-853.6
0.2,1,-824,-870
0.2,1,-837.1,-884.2
0.2,1,-847.6,-895.3
0.2,1,-856.2,-904.4
0.2,1,-863.8,-912.2
0.2,1,-869.9,-918
0.2,1,-873.4,-921.1
0.2,1,-875.2,-922.1
0.2,1,-876.1,-922.2
0.2,1,-876,-921.1
0.3,1,-873.9,-917.9
0.3,2,-869.9,-912.9
0.3,2,-865.1,-907.1
0.3,2,-859.3,-900.4
0.3,2,-852,-892.3
0.3,2,-843.1,-882.7
0.3,2,-833.4,-872.3
0.3,2,-823.1,-861.5
0.3,2,-812,-849.7
0.3,2,-799.9,-837
0.3,2,-787.1,-823.6
0.3,2,-774,-809.7
0.3,2,-760.4,-795.1
0.3,2,-746.2,-779.9
0.3,2,-731.4,-763.9
0.3,2,-716,-747.1
0.3,2,-700.3,-730
0.3,2,-684.3,-712.4
0.3,2,-667.7,-694.2
0.3,2,-650.3,-675.3
0.3,2,-632.4,-656
0.3,2,-614.3,-636.5
0.3,2,-595.5,-616.6
0.3,2,-575.8,-596
0.3,2,-555.5,-575.1
0.4,2,-535.1,-554.3
0.4,2,-514.4,-533.4
0.4,2,-492.8,-511.9
0.4,2,-470.8,-490
0.4,2,-449.1,-468.3
0.4,2,-427.5,-446.8
0.4,2,-405.4,-424.6
0.4,2,-383.1,-401.8
0.4,3,-361.2,-379.3
0.4,3,-340,-357.3
0.4,3,-318.7,-334.9
0.4,3,-297.3,-312.3
0.4,3,-276.3,-290
0.4,3,-256.2,-268.4
0.4,3,-236.2,-246.9
0.4,3,-216,-225.1
0.4,3,-196.2,-203.6
0.4,3,-177,-182.8
0.4,3,-158.1,-162.4
0.4,3,-138.9,-141.7
0.4,3,-119.7,-121.3
0.4,3,-101.1,-101.5
0.4,3,-82.7,-82.2
0.4,3,-64.1,-62.9
0.4,3,-45.5,-43.8
0.5,3,-27.3,-25.2
0.5,3,-9.5,-7.1
0.5,3,8.3,10.9
0.5,3,26,28.8
0.5,3,43.3,46.3
0.5,3,60.1,63.3
0.5,3,76.4,80.1
0.5,3,92.5,96.8
0.5,3,108.2,113.1
0.5,3,123.5,129.1
0.5,3,138.6,144.8
0.5,3,153.4,160.2
0.5,3,168,175.3
0.5,3,182.3,190
0.5,3,196.1,204.2
0.5,4,209.5,217.9
0.5,4,222.7,231.3
0.5,4,235.7,244.6
0.5,4,248.3,257.4
0.5,4,260.4,269.6
0.5,4,272.2,281.5
0.5,4,283.9,293.2
0.5,4,295.2,304.6
0.5,4,306,315.2
0.5,4,316.4,325.5
0.6,4,326.7,335.7
0.6,4,336.7,345.6
0.6,4,346,354.9
0.6,4,354.7,363.6
0.6,4,363.1,372.2
0.6,4,371.2,380.6
0.6,4,378.5,388.4
0.6,4,385.1,395.6
0.6,4,391.3,402.7
0.6,4,397.4,409.8
0.6,4,402.8,416.4
0.6,4,407.6,422.3
0.6,4,412,427.9
0.6,4,416.4,433.5
0.6,4,420.2,438.5
0.6,4,423.3,442.7
0.6,4,426,446.5
0.6,4,428.7,450.3
0.6,4,431.2,453.8
0.6,4,433.1,456.6
0.6,4,434.7,459
0.6,4,436.4,461.3
0.6,5,437.8,463.3
0.6,5,438.7,464.4
0.6,5,439.2,465
0.7,5,439.6,465.3
0.7,5,439.9,465.3
0.7,5,439.8,464.7
0.7,5,439.3,463.7
0.7,5,438.7,462.5
0.7,5,437.8,461.1
0.7,5,436.6,459.3
0.7,5,434.9,457.1
0.7,5,432.9,454.6
0.7,5,430.9,452
0.7,5,428.5,449
0.7,5,425.8,445.5
0.7,5,422.9,441.8
0.7,5,419.8,437.9
0.7,5,416.4,433.7
0.7,5,412.9,429.4
0.7,5,409.1,424.8
0.7,5,405.2,420.1
0.7,5,401.2,415.4
0.7,5,397.1,410.5
0.7,5,392.8,405.4
0.7,5,388.1,400.2
0.7,5,383.2,394.9
0.7,5,378.1,389.6
0.7,5,372.6,384.2
0.8,5,366.8,378.7
0.8,5,360.7,373.1
0.8,5,354.5,367.6
0.8,5,348.2,362
0.8,6,341.6,356.2
0.8,6,334.8,350.1
0.8,6,328,344.1
0.8,6,321.3,338
0.8,6,314.5,331.7
0.8,6,307.4,325.1
0.8,6,300.4,318.4
0.8,6,293.7,311.7
0.8,6,286.8,304.8
0.8,6,279.8,297.4
0.8,6,272.9,289.9
0.8,6,266.3,282.5
0.8,6,259.8,274.8
0.8,6,253.1,266.9
0.8,6,246.5,259.1
0.8,6,240.2,251.5
0.8,6,233.9,244.1
0.8,6,227.2,236.5
0.8,6,220.3,228.9
0.8,6,213.5,221.6
0.8,6,206.6,214.4
0.9,6,199.3,207.1
0.9,6,191.9,199.6
0.9,6,184.5,192.4
0.9,6,177.2,185.3
0.9,6,169.7,178
0.9,6,162.2,170.7
0.9,6,154.9,163.6
0.9,6,148,156.7
0.9,6,141.2,149.8
0.9,6,134.5,142.7
0.9,6,128.1,135.6
0.9,7,121.9,128.6
0.9,7,115.9,121.6
0.9,7,109.8,114.3
0.9,7,103.8,107.1
0.9,7,97.9,100.1
0.9,7,91.9,93.1
0.9,7,85.7,86.2
0.9,7,79.5,79.2
0.9,7,73.2,72.5
0.9,7,66.8,65.9
0.9,7,60.2,59.3
0.9,7,53.3,52.8
0.9,7,46.3,46.3
0.9,7,39.1,39.8
1,7,31.8,33.3
1,7,24.5,26.8
1,7,17.2,20.2
1,7,10.2,13.8
1,7,3.6,7.6
1,7,-2.7,1.5
1,7,-8.7,-4.5
1,7,-14.3,-10.3
1,7,-19.5,-15.9
1,7,-24.2,-21.3
1,7,-28.7,-26.5
1,7,-33,-31.5
1,7,-37,-36.3
1,7,-40.7,-40.7
1,7,-44.3,-44.9
1,7,-47.8,-48.9
1,7,-51.2,-52.6
1,7,-54.5,-56.1
1,8,-57.8,-59.5
1,8,-61.3,-63
1,8,-64.8,-66.4
1,8,-68.1,-69.8
1,8,-71.3,-73.1
1,8,-74.5,-76.7
1,8,-77.8,-80.3
1.1,8,-80.9,-83.8
1.1,8,-83.9,-87.2
1.1,8,-87,-90.8
1.1,8,-90.2,-94.4
1.1,8,-93.2,-97.7
1.1,8,-96.2,-100.9
1.1,8,-99.2,-104
1.1,8,-102.4,-107
1.1,8,-105.3,-109.8
1.1,8,-108.1,-112.2
1.1,8,-110.9,-114.5
1.1,8,-113.7,-116.7
1.1,8,-116.2,-118.7
1.1,8,-118.4,-120.3
1.1,8,-120.3,-121.7
1.1,8,-122.1,-123.2
1.1,8,-123.6,-124.5
1.1,8,-124.8,-125.5
1.1,8,-125.8,-126.5
1.1,8,-126.6,-127.7
1.1,8,-127.3,-128.9
1.1,8,-127.8,-130
1.1,8,-128,-131.2
1.1,8,-128.3,-132.6
1.1,8,-128.5,-134.1
1.2,9,-128.7,-135.5
1.2,9,-128.9,-137
1.2,9,-129.1,-138.3
1.2,9,-129.3,-139.6
1.2,9,-129.6,-140.6
1.2,9,-130.1,-141.5
1.2,9,-130.8,-142.2
1.2,9,-131.7,-142.8
1.2,9,-132.7,-143.1
1.2,9,-133.8,-143.1
1.2,9,-134.9,-142.9
1.2,9,-135.9,-142.4
1.2,9,-136.7,-141.8
1.2,9,-137.3,-141.1
1.2,9,-137.6,-140.3
1.2,9,-137.6,-139.6
1.2,9,-137.6,-139.1
1.2,9,-137.6,-138.7
1.2,9,-137.5,-138.6
1.2,9,-137.3,-138.5
1.2,9,-137.1,-138.7
1.2,9,-136.8,-139
1.2,9,-136.4,-139.3
1.2,9,-135.8,-139.5
1.2,9,-135,-139.6
1.3,9,-134.1,-139.7
1.3,9,-133.1,-139.6
1.3,9,-131.8,-139.1
1.3,9,-130.5,-138.3
1.3,9,-129.1,-137.2
1.3,9,-127.6,-135.9
1.3,9,-126,-134.3
1.3,10,-124.3,-132.5
1.3,10,-122.6,-130.6
1.3,10,-120.9,-128.7
1.3,10,-119.2,-126.7
1.3,10,-117.4,-124.4
1.3,10,-115.6,-122.2
1.3,10,-113.9,-119.9
1.3,10,-112.1,-117.6
1.3,10,-110.1,-115.1
1.3,10,-108,-112.7
1.3,10,-106.1,-110.5
1.3,10,-104.1,-108.4
1.3,10,-102.1,-106.3
1.3,10,-100.2,-104.1
1.3,10,-98.5,-102.1
1.3,10,-96.9,-100
1.3,10,-95.3,-97.8
1.3,10,-93.9,-95.4
1.4,10,-92.6,-93.1
1.4,10,-91.6,-90.9
1.4,10,-90.5,-88.5
1.4,10,-89.5,-86.1
1.4,10,-88.4,-83.7
1.4,10,-87.4,-81.3
1.4,10,-86.1,-78.9
1.4,10,-84.7,-76.6
1.4,10,-83.1,-74.3
1.4,10,-81.3,-72.2
1.4,10,-79.4,-70.2
1.4,10,-77.3,-68.3
1.4,10,-75.1,-66.7
1.4,10,-72.8,-65.4
1.4,11,-70.5,-64.2
1.4,11,-68.1,-63.2
1.4,11,-65.6,-62.4
1.4,11,-63.3,-61.7
1.4,11,-61.1,-61.2
1.4,11,-59.1,-60.7
1.4,11,-57.2,-60.1
1.4,11,-55.5,-59.5
1.4,11,-53.8,-58.7
1.4,11,-52.3,-57.8
1.4,11,-50.7,-56.6
1.5,11,-49.2,-55.2
1.5,11,-47.7,-53.7
1.5,11,-46.1,-51.9
1.5,11,-44.5,-50
1.5,11,-42.9,-48
1.5,11,-41.3,-45.9
1.5,11,-39.6,-43.7
1.5,11,-37.9,-41.5
1.5,11,-36.1,-39.2
1.5,11,-34.1,-37
1.5,11,-32.1,-34.8
1.5,11,-30.2,-32.7
1.5,11,-28.3,-30.6
1.5,11,-26.4,-28.7
1.5,11,-24.6,-26.8
1.5,11,-22.9,-25.2
1.5,11,-21.2,-23.6
1.5,11,-19.6,-22.1
1.5,11,-18.1,-20.8
1.5,11,-16.7,-19.5
1.5,11,-15.5,-18.4
1.5,12,-14.3,-17.3
1.5,12,-13,-16.2
1.5,12,-11.8,-15.2
1.5,12,-10.7,-14.3
1.6,12,-9.4,-13.5
1.6,12,-8.1,-12.6
1.6,12,-7,-11.9
1.6,12,-5.9,-11.2
1.6,12,-4.7,-10.4
1.6,12,-3.6,-9.6
1.6,12,-2.5,-8.8
1.6,12,-1.5,-8
1.6,12,-0.5,-7.3
1.6,12,0.6,-6.7
1.6,12,1.6,-6.1
1.6,12,2.6,-5.7
1.6,12,3.5,-5.4
1.6,12,4.3,-5
1.6,12,5,-4.8
1.6,12,5.5,-4.6
1.6,12,5.9,-4.6
1.6,12,6.2,-4.5
1.6,12,6.4,-4.4
1.6,12,6.5,-4.3
1.6,12,6.7,-4.2
1.6,12,6.9,-3.9
1.6,12,7.1,-3.5
1.6,12,7.3,-3
1.6,12,7.5,-2.4
1.7,12,7.7,-1.8
1.7,12,7.8,-1
1.7,12,7.8,-0.4
1.7,13,7.8,0.2
1.7,13,7.8,0.8
1.7,13,7.8,1.5
1.7,13,7.9,2.1
1.7,13,8,2.7
1.7,13,8.2,3.4
1.7,13,8.4,4.1
1.7,13,8.4,4.8
1.7,13,8.3,5.5
1.7,13,8.2,6.1
1.7,13,7.9,6.7
1.7,13,7.6,7.2
1.7,13,7.2,7.7
1.7,13,6.8,8.3
1.7,13,6.6,8.9
1.7,13,6.4,9.6
1.7,13,6.4,10.2
1.7,13,6.6,10.9
1.7,13,6.9,11.5
1.7,13,7.3,12
1.7,13,7.8,12.4
1.7,13,8.3,12.7
1.8,13,8.9,12.9
1.8,13,9.5,13
1.8,13,10.1,13
1.8,13,10.7,13
1.8,13,11.2,12.8
1.8,13,11.5,12.4
1.8,13,11.6,11.8
1.8,13,11.5,11.1
1.8,13,11.1,10.3
1.8,13,10.4,9.3
1.8,14,9.4,8.2
1.8,14,8.3,7.1
1.8,14,7.1,6
1.8,14,5.9,4.8
1.8,14,4.9,3.8
1.8,14,4.1,2.9
1.8,14,3.8,2.3
1.8,14,3.7,1.9
1.8,14,3.9,1.7
1.8,14,4.4,1.7
1.8,14,5.1,1.9
1.8,14,5.9,2.1
1.8,14,6.8,2.4
1.8,14,7.8,2.9
1.8,14,8.8,3.5
1.9,14,9.7,4.2
1.9,14,10.6,4.9
1.9,14,11.5,5.8
1.9,14,12.2,6.7
1.9,14,12.6,7.5
1.9,14,12.7,8.4
1.9,14,12.6,9.1
1.9,14,12.3,9.9
1.9,14,11.8,10.6
1.9,14,11.2,11.2
1.9,14,10.5,11.7
1.9,14,9.8,12
1.9,14,9,12
1.9,14,8.1,11.9
1.9,14,7.1,11.4
1.9,14,6.1,10.8
1.9,14,5.1,10.1
1.9,15,4.1,9.3
1.9,15,3.2,8.5
1.9,15,2.4,7.7
1.9,15,1.6,6.9
1.9,15,0.7,6.1
1.9,15,-0.2,5.2
1.9,15,-1.1,4.4
1.9,15,-1.9,3.7
2,15,-2.6,3.1
2,15,-3.1,2.5
2,15,-3.6,2
2,15,-3.9,1.6
2,15,-4.1,1.1
2,15,-4.1,0.8
2,15,-4,0.6
2,15,-3.7,0.5
2,15,-3.4,0.5
2,15,-2.9,0.7
2,15,-2.2,1
2,15,-1.5,1.4
2,15,-0.8,1.8
2,15,0,2.3
2,15,0.6,2.8
2,15,1.2,3.3
2,15,1.5,3.7
2,15,1.8,4.1
2,15,1.8,4.4
2,15,1.7,4.7
2,15,1.3,4.8
2,15,0.8,4.8
2,15,0.2,4.7
2,15,-0.5,4.4
2,16,-1.3,4
2.1,16,-2.2,3.4
2.1,16,-3.2,2.7
2.1,16,-4.2,1.8
2.1,16,-5.2,0.7
2.1,16,-6.3,-0.5
2.1,16,-7.3,-1.8
2.1,16,-8.3,-3.3
2.1,16,-9.2,-4.8
2.1,16,-10.1,-6.2
2.1,16,-10.8,-7.6
2.1,16,-11.4,-8.9
2.1,16,-11.9,-10
2.1,16,-12.3,-10.9
2.1,16,-12.5,-11.5
2.1,16,-12.5,-11.9
2.1,16,-12.3,-12.1
2.1,16,-12,-12.2
2.1,16,-11.6,-12.1
2.1,16,-11.2,-11.9
2.1,16,-10.8,-11.7
2.1,16,-10.6,-11.5
2.1,16,-10.4,-11.3
2.1,16,-10.3,-11.1
2.1,16,-10.4,-11.1
2.1,16,-10.6,-11.1
2.2,16,-10.9,-11.2
2.2,16,-11.3,-11.4
2.2,16,-11.7,-11.7
2.2,16,-12.2,-12.1
2.2,16,-12.6,-12.5
2.2,16,-13.1,-12.8
2.2,17,-13.4,-13.2
2.2,17,-13.7,-13.4
2.2,17,-13.8,-13.5
2.2,17,-13.8,-13.4
2.2,17,-13.7,-13.1
2.2,17,-13.3,-12.7
2.2,17,-12.9,-12.1
2.2,17,-12.4,-11.4
2.2,17,-11.9,-10.6
2.2,17,-11.3,-9.7
2.2,17,-10.7,-8.8
2.2,17,-10.2,-7.9
2.2,17,-9.8,-7
2.2,17,-9.4,-6
2.2,17,-9.1,-5.1
2.2,17,-8.8,-4.3
2.2,17,-8.5,-3.6
2.2,17,-8.3,-3.1
2.2,17,-8,-2.8
2.3,17,-7.7,-2.8
2.3,17,-7.4,-2.9
2.3,17,-7.1,-3.1
2.3,17,-6.7,-3.4
2.3,17,-6.5,-3.7
2.3,17,-6.2,-4.1
2.3,17,-5.9,-4.4
2.3,17,-5.4,-4.7
2.3,17,-4.9,-4.9
2.3,17,-4.2,-5
2.3,17,-3.4,-5
2.3,17,-2.6,-4.9
2.3,17,-1.8,-4.8
2.3,18,-1.1,-4.7
2.3,18,-0.5,-4.6
2.3,18,-0.1,-4.5
2.3,18,0.3,-4.4
2.3,18,0.6,-4.3
2.3,18,0.9,-4.1
2.3,18,1.1,-4
2.3,18,1.3,-3.8
2.3,18,1.4,-3.7
2.3,18,1.3,-3.6
2.3,18,1,-3.6
2.3,18,0.6,-3.6
2.4,18,0.2,-3.5
2.4,18,-0.3,-3.4
2.4,18,-0.8,-3.2
2.4,18,-1.2,-2.9
2.4,18,-1.4,-2.6
2.4,18,-1.7,-2.3
2.4,18,-1.8,-2
2.4,18,-1.8,-1.8
2.4,18,-1.8,-1.7
2.4,18,-1.6,-1.6
2.4,18,-1.3,-1.6
2.4,18,-0.9,-1.6
2.4,18,-0.4,-1.7
2.4,18,0,-1.8
2.4,18,0.4,-2
2.4,18,0.8,-2.2
2.4,18,1.1,-2.3
2.4,18,1.3,-2.5
2.4,18,1.5,-2.6
2.4,18,1.7,-2.7
2.4,19,1.9,-2.8
2.4,19,2,-2.8
2.4,19,2.1,-2.9
2.4,19,2.2,-3
2.4,19,2.1,-3.2
2.5,19,1.9,-3.4
2.5,19,1.7,-3.6
2.5,19,1.4,-3.7
2.5,19,1.1,-3.7
2.5,19,0.9,-3.5
2.5,19,0.7,-3.3
2.5,19,0.5,-2.9
2.5,19,0.4,-2.4
2.5,19,0.2,-1.9
2.5,19,0.1,-1.4
2.5,19,0,-0.9
2.5,19,0,-0.3
2.5,19,0.1,0.2
2.5,19,0.4,0.8
2.5,19,0.7,1.3
2.5,19,1.1,1.8
2.5,19,1.6,2.2
2.5,19,2,2.6
2.5,19,2.5,3
2.5,19,2.9,3.2
2.5,19,3.2,3.2
2.5,19,3.4,3.2
2.5,19,3.4,3.1
2.5,19,3.3,3.1
2.5,19,3,3.1
2.6,19,2.8,3.2
2.6,19,2.4,3.4
2.6,20,2.1,3.7
2.6,20,1.7,4
2.6,20,1.4,4.3
2.6,20,1,4.7
2.6,20,0.8,5.1
2.6,20,0.5,5.4
2.6,20,0.4,5.6
2.6,20,0.3,5.8
2.6,20,0.2,5.9
2.6,20,0.3,5.9
2.6,20,0.5,6
2.6,20,0.7,6
2.6,20,1.1,6.1
2.6,20,1.5,6.3
2.6,20,1.9,6.4
2.6,20,2.2,6.6
2.6,20,2.4,6.7
2.6,20,2.6,7
2.6,20,2.8,7.3
2.6,20,3,7.6
2.6,20,3.2,8
2.6,20,3.2,8.2
2.6,20,3.2,8.5
2.7,20,3.1,8.6
2.7,20,3.1,8.8
2.7,20,3.1,8.9
2.7,20,3.2,9
2.7,20,3.5,9.2
2.7,20,3.9,9.3
2.7,20,4.4,9.5
2.7,20,4.7,9.4
2.7,20,5,9.2
2.7,21,5.1,8.8
2.7,21,5.1,8.3
2.7,21,5,7.7
2.7,21,4.9,7.2
2.7,21,4.7,6.7
2.7,21,4.5,6.4
2.7,21,4.3,6.4
2.7,21,4.3,6.5
2.7,21,4.5,6.9
2.7,21,4.8,7.5
2.7,21,5.4,8.3
2.7,21,6.1,9.3
2.7,21,7,10.3
2.7,21,7.8,11.3
2.7,21,8.7,12.1
2.7,21,9.6,12.8
2.8,21,10.5,13.3
2.8,21,11.3,13.6
2.8,21,12,13.6
2.8,21,12.5,13.3
2.8,21,12.8,12.9
2.8,21,12.8,12.2
2.8,21,12.6,11.5
2.8,21,12.2,10.6
2.8,21,11.7,9.7
2.8,21,11.1,8.8
2.8,21,10.4,8
2.8,21,9.7,7.1
2.8,21,9,6.4
2.8,21,8.3,5.6
2.8,21,7.6,4.8
2.8,21,7,4.1
2.8,22,6.4,3.4
2.8,22,5.7,2.7
2.8,22,5,2.1
2.8,22,4.3,1.7
2.8,22,3.5,1.5
2.8,22,2.9,1.4
2.8,22,2.2,1.6
2.8,22,1.7,1.9
2.8,22,1.3,2.4
2.9,22,1,3
2.9,22,1,3.8
2.9,22,1.1,4.5
2.9,22,1.4,5.3
2.9,22,1.9,5.9
2.9,22,2.3,6.4
2.9,22,2.9,6.6
2.9,22,3.5,6.6
2.9,22,4.3,6.4
2.9,22,5.2,6
2.9,22,6.2,5.3
2.9,22,7.1,4.5
2.9,22,8,3.6
2.9,22,8.8,2.6
2.9,22,9.5,1.7
2.9,22,9.9,0.8
2.9,22,10.2,0
2.9,22,10.3,-0.6
2.9,22,10.1,-1.1
2.9,22,9.8,-1.4
2.9,22,9.3,-1.5
2.9,22,8.6,-1.5
2.9,22,7.8,-1.4
2.9,23,6.9,-1
2.9,23,5.9,-0.6
3,23,4.8,0
3,23,3.7,0.7
3,23,2.7,1.4
3,23,1.8,2.1
3,23,1.1,2.8
3,23,0.7,3.4
3,23,0.5,3.9
3,23,0.6,4.1
3,23,0.9,4.2
3,23,1.4,4.1
3,23,1.9,3.9
3,23,2.5,3.6
3,23,3.1,3.1
3,23,3.8,2.6
3,23,4.4,2.1
3,23,5,1.5
3,23,5.5,0.9
3,23,6,0.4
3,23,6.4,0
3,23,6.8,-0.3
3,23,7.2,-0.4
3,23,7.4,-0.3
3,23,7.5,-0.1
3,23,7.5,0.1
3,23,7.3,0.4
3.1,23,6.9,0.5
3.1,23,6.4,0.6
3.1,23,5.9,0.5
3.1,23,5.3,0.4
3.1,23,4.9,0.2
3.1,24,4.4,0
3.1,24,4.1,-0.4
3.1,24,3.8,-0.9
3.1,24,3.5,-1.7
3.1,24,3.2,-2.6
3.1,24,2.8,-3.6
3.1,24,2.5,-4.8
3.1,24,2.2,-6
3.1,24,2,-7.2
3.1,24,1.8,-8.2
3.1,24,1.8,-8.9
3.1,24,1.8,-9.3
3.1,24,1.9,-9.4
3.1,24,2,-9.2
3.1,24,2.1,-8.7
3.1,24,2.3,-7.8
3.1,24,2.5,-6.6
3.1,24,2.8,-5.2
3.1,24,3.2,-3.6
3.1,24,3.5,-1.8
3.2,24,3.8,0
3.2,24,4.1,1.7
3.2,24,4.3,3.2
3.2,24,4.3,4.5
3.2,24,4.2,5.4
3.2,24,4,6.1
3.2,24,3.8,6.5
3.2,24,3.6,6.5
3.2,24,3.5,6.3
3.2,24,3.5,5.9
3.2,24,3.4,5.4
3.2,24,3.4,4.7
3.2,25,3.4,4.1
3.2,25,3.4,3.5
3.2,25,3.3,3.1
3.2,25,3.2,2.9
3.2,25,3.1,3
3.2,25,3.1,3.5
3.2,25,3.2,4.2
3.2,25,3.4,5.2
3.2,25,3.7,6.4
3.2,25,4.1,7.6
3.2,25,4.4,8.9
3.2,25,4.7,10
3.2,25,4.9,11
3.3,25,5,11.8
3.3,25,5.1,12.5
3.3,25,5.1,12.9
3.3,25,5,13.2
3.3,25,4.8,13.2
3.3,25,4.7,13
3.3,25,4.6,12.7
3.3,25,4.6,12.2
3.3,25,4.5,11.6
3.3,25,4.5,10.8
3.3,25,4.6,10
3.3,25,4.8,9.2
3.3,25,5,8.5
3.3,25,5.1,7.7
3.3,25,5.1,7
3.3,25,4.9,6.3
3.3,25,4.6,5.6
3.3,25,4.1,5.1
3.3,25,3.5,4.7
3.3,26,2.7,4.4
3.3,26,1.9,4.4
3.3,26,1.2,4.6
3.3,26,0.5,5.1
3.3,26,-0.1,5.7
3.3,26,-0.7,6.3
3.4,26,-1.2,7
3.4,26,-1.8,7.5
3.4,26,-2.3,8
3.4,26,-2.7,8.4
3.4,26,-3.1,8.7
3.4,26,-3.3,8.8
3.4,26,-3.4,8.7
3.4,26,-3.5,8.4
3.4,26,-3.4,7.9
3.4,26,-3.3,7.3
3.4,26,-3.1,6.6
3.4,26,-2.7,5.8
3.4,26,-2.3,5
3.4,26,-1.8,4.2
3.4,26,-1.2,3.4
3.4,26,-0.6,2.7
3.4,26,-0.2,2
3.4,26,0.3,1.4
3.4,26,0.6,0.8
3.4,26,0.7,0.4
3.4,26,0.7,-0.1
3.4,26,0.5,-0.7
3.4,26,0.2,-1.2
3.4,26,-0.2,-1.7
3.4,26,-0.7,-2.1
3.5,26,-1.1,-2.5
3.5,27,-1.5,-2.8
3.5,27,-1.9,-3.1
3.5,27,-2.3,-3.4
3.5,27,-2.6,-3.6
3.5,27,-2.8,-3.7
3.5,27,-2.8,-3.8
3.5,27,-2.7,-3.8
3.5,27,-2.3,-3.6
3.5,27,-1.8,-3.3
3.5,27,-1,-2.9
3.5,27,-0.2,-2.3
3.5,27,0.7,-1.7
3.5,27,1.6,-1.1
3.5,27,2.4,-0.4
3.5,27,3,0.3
3.5,27,3.5,1
3.5,27,3.9,1.8
3.5,27,4.1,2.5
3.5,27,4.2,3.1
3.5,27,4.1,3.7
3.5,27,4.1,4.3
3.5,27,4.1,4.8
3.5,27,4.1,5.4
3.5,27,4,5.8
3.6,27,3.8,6.1
3.6,27,3.4,6.2
3.6,27,2.9,6.2
3.6,27,2.1,5.9
3.6,27,1.4,5.5
3.6,27,0.6,5.1
3.6,27,0,4.7
3.6,27,-0.3,4.4
3.6,28,-0.4,4.3
3.6,28,-0.2,4.4
3.6,28,0.3,4.6
3.6,28,1,4.9
3.6,28,1.7,5.2
3.6,28,2.5,5.6
3.6,28,3.2,5.9
3.6,28,3.9,6.1
3.6,28,4.4,6.3
3.6,28,4.8,6.4
3.6,28,5.1,6.4
3.6,28,5.2,6.3
3.6,28,5.1,6.1
3.6,28,4.8,5.7
3.6,28,4.3,5.3
3.6,28,3.8,4.8
3.6,28,3.1,4.4
3.7,28,2.4,3.9
3.7,28,1.6,3.5
3.7,28,0.7,3.1
3.7,28,-0.1,2.6
3.7,28,-0.7,2.2
3.7,28,-1.3,1.9
3.7,28,-1.6,1.5
3.7,28,-1.9,1.2
3.7,28,-1.9,0.9
3.7,28,-1.8,0.7
3.7,28,-1.6,0.5
3.7,28,-1.3,0.5
3.7,28,-1.1,0.5
3.7,28,-0.8,0.5
3.7,28,-0.5,0.6
3.7,29,-0.2,0.8
3.7,29,0.2,1.1
3.7,29,0.5,1.5
3.7,29,0.9,2.1
3.7,29,1.3,2.8
3.7,29,1.6,3.5
3.7,29,1.9,4.2
3.7,29,2.1,4.8
3.7,29,2.2,5.1
3.7,29,2.2,5.2
3.8,29,2,5
3.8,29,1.8,4.6
3.8,29,1.5,3.9
3.8,29,1.3,3.1
3.8,29,1.1,2.1
3.8,29,1,1.1
3.8,29,0.9,0.1
3.8,29,0.9,-0.9
3.8,29,1,-1.8
3.8,29,1,-2.5
3.8,29,1,-3.1
3.8,29,1,-3.5
3.8,29,1,-3.9
3.8,29,0.9,-4
3.8,29,0.7,-3.9
3.8,29,0.6,-3.6
3.8,29,0.5,-3.1
3.8,29,0.4,-2.5
3.8,29,0.4,-1.7
3.8,29,0.3,-0.9
3.8,29,0.2,-0.1
3.8,29,0.2,0.6
3.8,30,0.4,1.2
3.8,30,0.6,1.9
3.8,30,0.9,2.4
3.9,30,1.3,2.8
3.9,30,1.7,3.1
3.9,30,2.2,3.2
3.9,30,2.8,3.3
3.9,30,3.3,3.3
3.9,30,3.8,3.2
3.9,30,4.3,3.2
3.9,30,4.7,3.2
3.9,30,5,3.1
3.9,30,5.3,3.1
3.9,30,5.4,3.1
3.9,30,5.5,3.1
3.9,30,5.5,3.1
3.9,30,5.6,3.2
3.9,30,5.7,3.3
3.9,30,5.8,3.5
3.9,30,5.9,3.5
3.9,30,5.9,3.5
3.9,30,6,3.3
3.9,30,6,3.1
3.9,30,6.1,2.8
3.9,30,6.2,2.5
3.9,30,6.3,2.1
3.9,30,6.4,1.8
3.9,30,6.5,1.5
4,30,6.6,1.1
4,30,6.7,0.9
4,30,6.6,0.6
4,30,6.5,0.5
4,31,6.3,0.5
4,31,6.1,0.6
4,31,5.9,0.8
4,31,5.5,1
4,31,5.2,1.2
4,31,4.7,1.4
4,31,4.3,1.6
4,31,3.9,1.7
4,31,3.5,1.8
4,31,3.3,1.7
4,31,3.1,1.6
4,31,3,1.3
4,31,3,1
4,31,3,0.6
4,31,3.1,0.2
4,31,3.2,-0.1
4,31,3.4,-0.4
4,31,3.5,-0.8
4,31,3.5,-1.1
4,31,3.5,-1.4
4,31,3.5,-1.7
4.1,31,3.4,-1.9
4.1,31,3.4,-1.9
4.1,31,3.3,-1.9
4.1,31,3.2,-1.8
4.1,31,3.1,-1.5
4.1,31,2.9,-1.3
4.1,31,2.6,-1
4.1,31,2.2,-0.8
4.1,31,1.7,-0.7
4.1,31,1.3,-0.7
4.1,31,0.9,-0.7
4.1,32,0.6,-0.8
4.1,32,0.3,-0.9
4.1,32,0.2,-1
4.1,32,0.1,-1.2
4.1,32,0.1,-1.4
4.1,32,0.1,-1.5
4.1,32,0.1,-1.7
4.1,32,0.1,-1.9
4.1,32,0,-2
4.1,32,-0.2,-2.2
4.1,32,-0.5,-2.3
4.1,32,-0.8,-2.3
4.1,32,-1.1,-2.1
4.1,32,-1.3,-1.7
4.2,32,-1.5,-1.2
4.2,32,-1.6,-0.7
4.2,32,-1.6,0
4.2,32,-1.5,0.6
4.2,32,-1.3,1.2
4.2,32,-1.1,1.7
4.2,32,-0.8,2.1
4.2,32,-0.4,2.4
4.2,32,0,2.5
4.2,32,0.3,2.6
4.2,32,0.7,2.4
4.2,32,0.9,2.2
4.2,32,1.1,1.8
4.2,32,1.1,1.3
4.2,32,1.1,0.8
4.2,32,1,0.2
4.2,32,0.7,-0.4
4.2,32,0.2,-1
4.2,33,-0.4,-1.6
4.2,33,-1.2,-2.2
4.2,33,-2,-2.6
4.2,33,-2.8,-2.9
4.2,33,-3.7,-3.2
4.2,33,-4.6,-3.3
4.2,33,-5.6,-3.5
4.3,33,-6.5,-3.5
4.3,33,-7.2,-3.4
4.3,33,-7.8,-3.1
4.3,33,-8.3,-2.8
4.3,33,-8.6,-2.5
4.3,33,-8.8,-2.1
4.3,33,-9,-1.8
4.3,33,-9,-1.5
4.3,33,-8.9,-1.3
4.3,33,-8.7,-1.1
4.3,33,-8.4,-1
4.3,33,-8,-1
4.3,33,-7.5,-1
4.3,33,-6.9,-1
4.3,33,-6.4,-1
4.3,33,-5.8,-1
4.3,33,-5.4,-0.9
4.3,33,-4.9,-0.8
4.3,33,-4.6,-0.5
4.3,33,-4.3,-0.2
4.3,33,-4,0.2
4.3,33,-3.8,0.6
4.3,33,-3.5,1.1
4.3,33,-3.3,1.4
4.3,33,-3.2,1.7
4.4,34,-3,1.9
4.4,34,-2.9,2
4.4,34,-2.7,2
4.4,34,-2.7,1.8
4.4,34,-2.7,1.5
4.4,34,-3,0.9
4.4,34,-3.4,0.1
4.4,34,-4.1,-0.9
4.4,34,-4.8,-2
4.4,34,-5.4,-3.1
4.4,34,-5.8,-4
4.4,34,-6,-4.8
4.4,34,-6,-5.4
4.4,34,-5.7,-5.9
4.4,34,-5.2,-6.2
4.4,34,-4.5,-6.3
4.4,34,-3.7,-6.2
4.4,34,-2.8,-6
4.4,34,-1.8,-5.6
4.4,34,-0.8,-5
4.4,34,0.2,-4.4
4.4,34,1.1,-3.6
4.4,34,1.8,-2.9
4.4,34,2.2,-2.2
4.4,34,2.3,-1.6
4.5,34,2.3,-1.1
4.5,34,2.2,-0.7
4.5,34,1.9,-0.3
4.5,34,1.7,0.1
4.5,34,1.4,0.4
4.5,34,1.1,0.8
4.5,34,0.7,1
4.5,35,0.3,1.2
4.5,35,-0.2,1.3
4.5,35,-0.7,1.4
4.5,35,-1.1,1.4
4.5,35,-1.4,1.4
4.5,35,-1.7,1.5
4.5,35,-2,1.5
4.5,35,-2.3,1.5
4.5,35,-2.6,1.5
4.5,35,-2.9,1.4
4.5,35,-3.1,1.3
4.5,35,-3.2,1.2
4.5,35,-3.2,1
4.5,35,-3.1,0.9
4.5,35,-2.8,0.6
4.5,35,-2.5,0.3
4.5,35,-2,0
4.5,35,-1.5,-0.4
4.6,35,-1,-0.9
4.6,35,-0.5,-1.4
4.6,35,0.1,-2
4.6,35,0.6,-2.6
4.6,35,1.2,-3.1
4.6,35,1.8,-3.4
4.6,35,2.5,-3.7
4.6,35,3.1,-3.8
4.6,35,3.7,-3.9
4.6,35,4.2,-3.8
4.6,35,4.5,-3.6
4.6,35,4.7,-3.3
4.6,35,4.7,-3
4.6,35,4.6,-2.5
4.6,36,4.4,-2
4.6,36,4,-1.5
4.6,36,3.6,-1
4.6,36,3,-0.5
4.6,36,2.4,-0.1
4.6,36,1.7,0.3
4.6,36,1,0.6
4.6,36,0.4,0.9
4.6,36,-0.2,1.1
4.6,36,-0.6,1.2
4.6,36,-0.9,1.3
4.7,36,-1,1.2
4.7,36,-1.1,1.1
4.7,36,-1.1,0.8
4.7,36,-1,0.5
4.7,36,-0.9,0.1
4.7,36,-0.8,-0.3
4.7,36,-0.6,-0.9
4.7,36,-0.5,-1.5
4.7,36,-0.3,-2
4.7,36,-0.1,-2.5
4.7,36,0.1,-2.9
4.7,36,0.4,-3.2
4.7,36,0.7,-3.4
4.7,36,1.1,-3.3
4.7,36,1.5,-3.1
4.7,36,2,-2.8
4.7,36,2.5,-2.3
4.7,36,3,-1.7
4.7,36,3.6,-1.1
4.7,36,4.2,-0.5
4.7,36,4.8,0.1
4.7,37,5.5,0.8
4.7,37,6.2,1.4
4.7,37,6.8,2.1
4.7,37,7.3,2.7
4.8,37,7.8,3.2
4.8,37,8.1,3.7
4.8,37,8.4,4.1
4.8,37,8.5,4.4
4.8,37,8.5,4.7
4.8,37,8.2,4.9
4.8,37,7.8,5
4.8,37,7.2,4.9
4.8,37,6.5,4.7
4.8,37,5.7,4.3
4.8,37,4.9,3.9
4.8,37,4.2,3.4
4.8,37,3.6,2.9
4.8,37,2.9,2.3
4.8,37,2.2,1.7
4.8,37,1.5,1
4.8,37,0.9,0.5
4.8,37,0.5,0
4.8,37,0.1,-0.4
4.8,37,-0.2,-0.6
4.8,37,-0.4,-0.8
4.8,37,-0.7,-0.9
4.8,37,-0.9,-0.9
4.8,37,-1.1,-0.8
4.8,37,-1.3,-0.7
4.9,37,-1.5,-0.6
4.9,37,-1.6,-0.6
4.9,37,-1.7,-0.5
4.9,38,-1.7,-0.5
4.9,38,-1.7,-0.7
4.9,38,-1.8,-1.1
4.9,38,-1.9,-1.5
4.9,38,-2.1,-2
4.9,38,-2.2,-2.4
4.9,38,-2.3,-2.8
4.9,38,-2.4,-3
4.9,38,-2.5,-3
4.9,38,-2.5,-2.9
4.9,38,-2.6,-2.8
4.9,38,-2.7,-2.6
4.9,38,-2.7,-2.4
4.9,38,-2.6,-2.2
4.9,38,-2.5,-2.1
4.9,38,-2.4,-2
4.9,38,-2.2,-1.8
4.9,38,-2.1,-1.6
4.9,38,-2.1,-1.4
4.9,38,-2.1,-1.1
4.9,38,-2.2,-0.8
4.9,38,-2.3,-0.5
5,38,-2.5,-0.2
5,38,-2.7,-0.1
5,38,-2.9,0
5,38,-3,-0.1
5,38,-3.1,-0.4
5,38,-3.2,-0.8
5,38,-3.3,-1.3
5,38,-3.3,-2
5,38,-3.4,-2.8
5,38,-3.4,-3.5
5,39,-3.5,-4.2
5,39,-3.5,-4.9
5,39,-3.6,-5.4
5,39,-3.7,-5.8
5,39,-3.8,-6.1
5,39,-3.9,-6.3
5,39,-4,-6.2
5,39,-4.1,-6.1
5,39,-4.3,-5.9
5,39,-4.6,-5.6
5,39,-5,-5.3
5,39,-5.5,-5
5,39,-6,-4.7
5,39,-6.5,-4.6
5,39,-7,-4.5
5.1,39,-7.3,-4.4
5.1,39,-7.6,-4.4
5.1,39,-7.7,-4.3
5.1,39,-7.8,-4.1
5.1,39,-7.7,-3.7
5.1,39,-7.6,-3.3
5.1,39,-7.4,-2.7
5.1,39,-7,-2.1
5.1,39,-6.6,-1.5
5.1,39,-6,-0.9
5.1,39,-5.5,-0.4
5.1,39,-4.9,-0.2
5.1,39,-4.4,-0.1
5.1,39,-4,-0.4
5.1,39,-3.7,-0.9
5.1,39,-3.4,-1.6
5.1,39,-3.1,-2.4
5.1,40,-2.9,-3.4
5.1,40,-2.7,-4.3
5.1,40,-2.6,-5.1
5.1,40,-2.5,-5.8
5.1,40,-2.4,-6.4
5.1,40,-2.4,-6.8
5.1,40,-2.5,-7.1
5.1,40,-2.6,-7.2
5.2,40,-2.9,-7.1
5.2,40,-3.2,-7
5.2,40,-3.5,-6.7
5.2,40,-3.9,-6.3
5.2,40,-4.2,-5.8
5.2,40,-4.6,-5.3
5.2,40,-5,-4.7
5.2,40,-5.4,-4.1
5.2,40,-5.8,-3.6
5.2,40,-6,-3.1
5.2,40,-6.1,-2.8
5.2,40,-6,-2.4
5.2,40,-5.7,-2.1
5.2,40,-5.3,-1.8
5.2,40,-4.7,-1.5
5.2,40,-4.1,-1.1
5.2,40,-3.4,-0.7
5.2,40,-2.7,-0.2
5.2,40,-1.9,0.2
5.2,40,-1.2,0.7
5.2,40,-0.5,1.1
5.2,40,0.2,1.4
5.2,40,0.7,1.7
5.2,40,1.1,1.8
5.2,41,1.3,1.9
5.3,41,1.4,1.9
5.3,41,1.3,1.9
5.3,41,1.1,1.8
5.3,41,0.7,1.6
5.3,41,0.3,1.4
5.3,41,-0.3,1.2
5.3,41,-0.8,1.1
5.3,41,-1.2,1.1
5.3,41,-1.7,1.2
5.3,41,-2.1,1.3
5.3,41,-2.5,1.5
5.3,41,-2.9,1.6
5.3,41,-3.3,1.7
5.3,41,-3.7,1.6
5.3,41,-4.1,1.5
5.3,41,-4.4,1.3
5.3,41,-4.5,1.1
5.3,41,-4.6,0.9
5.3,41,-4.5,0.7
5.3,41,-4.3,0.7
5.3,41,-4,0.7
5.3,41,-3.6,0.8
5.3,41,-3,1.1
5.3,41,-2.3,1.4
5.3,41,-1.5,1.8
5.4,41,-0.7,2.1
5.4,41,0.2,2.4
5.4,41,1,2.6
5.4,41,1.8,2.8
5.4,41,2.6,3
5.4,41,3.4,3.1
5.4,42,4.1,3.3
5.4,42,4.8,3.5
5.4,42,5.2,3.7
5.4,42,5.5,3.9
5.4,42,5.7,4.2
5.4,42,5.7,4.5
5.4,42,5.6,4.7
5.4,42,5.3,4.9
5.4,42,4.9,5.1
5.4,42,4.5,5.1
5.4,42,4.1,4.9
5.4,42,3.7,4.7
5.4,42,3.3,4.3
5.4,42,2.9,3.9
5.4,42,2.5,3.3
5.4,42,2.1,2.7
5.4,42,1.7,2.1
5.4,42,1.2,1.5
5.4,42,0.8,0.9
5.5,42,0.5,0.5
5.5,42,0.3,0.2
5.5,42,0.2,0.1
5.5,42,0.1,0.1
5.5,42,0.1,0.2
5.5,42,0.2,0.3
5.5,42,0.4,0.5
5.5,42,0.6,0.7
5.5,42,0.9,1
5.5,42,1.2,1.3
5.5,42,1.4,1.6
5.5,42,1.6,2
5.5,42,1.6,2.3
5.5,43,1.6,2.6
5.5,43,1.6,2.8
5.5,43,1.6,3
5.5,43,1.5,3
5.5,43,1.5,2.9
5.5,43,1.6,2.7
5.5,43,1.7,2.3
5.5,43,1.8,1.8
5.5,43,1.9,1.1
5.5,43,2.1,0.3
5.5,43,2.4,-0.7
5.5,43,2.7,-1.6
5.6,43,3,-2.5
5.6,43,3.2,-3.4
5.6,43,3.3,-4.1
5.6,43,3.4,-4.6
5.6,43,3.4,-4.9
5.6,43,3.3,-5
5.6,43,3.3,-5
5.6,43,3.2,-4.7
5.6,43,3.1,-4.2
5.6,43,2.9,-3.6
5.6,43,2.7,-2.9
5.6,43,2.4,-2.2
5.6,43,2,-1.7
5.6,43,1.7,-1.2
5.6,43,1.4,-0.9
5.6,43,1.2,-0.7
5.6,43,1.1,-0.5
5.6,43,0.9,-0.5
5.6,43,0.8,-0.6
5.6,43,0.7,-0.8
5.6,44,0.6,-1
5.6,44,0.6,-1.3
5.6,44,0.5,-1.5
5.6,44,0.6,-1.7
5.6,44,0.7,-1.8
5.7,44,0.8,-1.8
5.7,44,0.9,-1.6
5.7,44,1,-1.3
5.7,44,1.1,-1
5.7,44,1.2,-0.6
5.7,44,1.3,-0.1
5.7,44,1.4,0.4
5.7,44,1.5,0.9
5.7,44,1.6,1.4
5.7,44,1.7,1.7
5.7,44,1.8,1.9
5.7,44,1.8,2
5.7,44,1.9,2
5.7,44,2,2.1
5.7,44,2.1,2.1
5.7,44,2.3,2.3
5.7,44,2.6,2.4
5.7,44,2.8,2.6
5.7,44,3,2.6
5.7,44,3,2.7
5.7,44,3,2.7
5.7,44,3,2.7
5.7,44,2.9,2.8
5.7,44,2.9,2.9
5.7,44,2.9,3.1
5.8,44,2.9,3.2
5.8,44,2.9,3.3
5.8,45,2.9,3.4
5.8,45,3,3.5
5.8,45,3.1,3.6
5.8,45,3.1,3.7
5.8,45,3.1,3.8
5.8,45,3,3.8
5.8,45,2.9,3.9
5.8,45,2.8,3.9
5.8,45,2.7,3.9
5.8,45,2.5,3.9
5.8,45,2.3,3.8
5.8,45,2,3.6
5.8,45,1.7,3.4
5.8,45,1.4,3.1
5.8,45,1,2.7
5.8,45,0.6,2.4
5.8,45,0.2,2
5.8,45,-0.2,1.7
5.8,45,-0.4,1.5
5.8,45,-0.6,1.2
5.8,45,-0.8,1
5.8,45,-0.9,0.8
5.8,45,-1.1,0.7
5.9,45,-1.3,0.5
5.9,45,-1.6,0.3
5.9,45,-1.9,0.1
5.9,45,-2.1,-0.2
5.9,45,-2.3,-0.4
5.9,45,-2.2,-0.6
5.9,45,-2.1,-0.8
5.9,45,-1.7,-0.8
5.9,45,-1.3,-0.7
5.9,46,-0.9,-0.5
5.9,46,-0.4,-0.3
5.9,46,0,0
5.9,46,0.4,0.2
5.9,46,0.7,0.4
5.9,46,0.9,0.6
5.9,46,1,0.7
5.9,46,1,0.7
5.9,46,1,0.6
5.9,46,0.9,0.5
5.9,46,0.8,0.4
5.9,46,0.7,0.2
5.9,46,0.7,0
5.9,46,0.7,-0.1
5.9,46,0.9,-0.3
5.9,46,1,-0.5
6,46,1.1,-0.6
6,46,1.2,-0.8
6,46,1.1,-1
6,46,0.9,-1.2
6,46,0.6,-1.4
6,46,0.1,-1.7
6,46,-0.5,-2
6,46,-1.1,-2.3
6,46,-1.8,-2.6
6,46,-2.6,-2.9
6,46,-3.3,-3.2
6,46,-4,-3.5
6,46,-4.7,-3.8
6,46,-5.4,-4.2
6,46,-6.1,-4.5
6,46,-6.8,-4.9
6,47,-7.6,-5.2
6,47,-8.3,-5.5
6,47,-9,-5.8
6,47,-9.5,-5.9
6,47,-9.7,-6
6,47,-9.6,-6
6,47,-9.1,-5.9
6,47,-8.2,-5.7
6,47,-7,-5.4
6.1,47,-5.6,-5.1
6.1,47,-4,-4.7
6.1,47,-2.5,-4.2
6.1,47,-0.9,-3.8
6.1,47,0.4,-3.2
6.1,47,1.6,-2.7
6.1,47,2.6,-2.2
6.1,47,3.2,-1.8
6.1,47,3.6,-1.5
6.1,47,3.6,-1.2
6.1,47,3.4,-0.9
6.1,47,3,-0.6
6.1,47,2.4,-0.3
6.1,47,1.7,0
6.1,47,0.9,0.4
6.1,47,0,0.9
6.1,47,-0.7,1.4
6.1,47,-1.4,1.8
6.1,47,-1.9,2.3
6.1,47,-2.3,2.6
6.1,47,-2.6,2.8
6.1,47,-2.8,3
6.1,47,-2.9,3
6.1,48,-3,3
6.1,48,-3,2.9
6.2,48,-2.9,2.8
6.2,48,-2.8,2.7
6.2,48,-2.6,2.6
6.2,48,-2.3,2.7
6.2,48,-1.9,2.8
6.2,48,-1.5,2.8
6.2,48,-1.1,2.9
6.2,48,-0.8,2.9
6.2,48,-0.4,2.8
6.2,48,-0.1,2.7
6.2,48,0.3,2.5
6.2,48,0.7,2.3
6.2,48,1.2,2.2
6.2,48,1.8,2
6.2,48,2.5,1.8
6.2,48,3.2,1.6
6.2,48,4,1.4
6.2,48,4.7,1.1
6.2,48,5.4,0.7
6.2,48,6,0.3
6.2,48,6.5,-0.1
6.2,48,6.9,-0.5
6.2,48,7.3,-1
6.2,48,7.5,-1.4
6.2,48,7.6,-1.7
6.3,48,7.6,-2
6.3,48,7.5,-2.2
6.3,48,7.1,-2.3
6.3,48,6.6,-2.3
6.3,48,5.8,-2.4
6.3,49,4.9,-2.5
6.3,49,3.9,-2.5
6.3,49,2.9,-2.5
6.3,49,1.8,-2.5
6.3,49,0.7,-2.5
6.3,49,-0.3,-2.5
6.3,49,-1.3,-2.5
6.3,49,-2.1,-2.4
6.3,49,-2.9,-2.4
6.3,49,-3.5,-2.3
6.3,49,-4,-2.2
6.3,49,-4.4,-2.1
6.3,49,-4.6,-2
6.3,49,-4.7,-1.8
6.3,49,-4.6,-1.5
6.3,49,-4.4,-1.3
6.3,49,-4.2,-0.9
6.3,49,-4,-0.6
6.3,49,-3.7,-0.3
6.3,49,-3.4,0
6.4,49,-2.9,0.2
6.4,49,-2.4,0.3
6.4,49,-1.9,0.3
6.4,49,-1.4,0.2
6.4,49,-1.1,0.1
6.4,49,-1,-0.1
6.4,49,-0.9,-0.4
6.4,49,-1,-0.8
6.4,49,-1.2,-1.1
6.4,49,-1.4,-1.4
6.4,49,-1.6,-1.6
6.4,49,-1.9,-1.6
6.4,50,-2.2,-1.4
6.4,50,-2.4,-1
6.4,50,-2.6,-0.5
6.4,50,-2.7,0.1
6.4,50,-2.8,0.7
6.4,50,-2.8,1.2
6.4,50,-2.8,1.6
6.4,50,-2.8,1.8
6.4,50,-2.7,1.8
6.4,50,-2.6,1.8
6.4,50,-2.5,1.6
6.4,50,-2.3,1.4
6.4,50,-2.2,1.3
6.5,50,-2,1.1
6.5,50,-1.8,0.9
6.5,50,-1.6,0.8
6.5,50,-1.4,0.7
6.5,50,-1.3,0.6
6.5,50,-1.2,0.6
6.5,50,-1.2,0.5
6.5,50,-1.2,0.5
6.5,50,-1.3,0.6
6.5,50,-1.4,0.7
6.5,50,-1.4,0.9
6.5,50,-1.3,1.2
6.5,50,-1.3,1.4
6.5,50,-1.3,1.6
6.5,50,-1.3,1.8
6.5,50,-1.3,1.9
6.5,50,-1.4,1.9
6.5,50,-1.3,1.9
6.5,50,-1.1,1.8
6.5,51,-0.9,1.6
6.5,51,-0.6,1.3
6.5,51,-0.2,1
6.5,51,0.2,0.7
6.5,51,0.7,0.4
6.5,51,1.2,0.1
6.6,51,1.8,0
6.6,51,2.5,0
6.6,51,3.3,0.1
6.6,51,4,0.1
6.6,51,4.7,0.2
6.6,51,5.2,0.2
6.6,51,5.6,0.3
6.6,51,5.9,0.3
6.6,51,6,0.2
6.6,51,6.1,0.2
6.6,51,6,0.2
6.6,51,5.8,0.1
6.6,51,5.4,0.1
6.6,51,5,-0.1
6.6,51,4.5,-0.3
6.6,51,4,-0.5
6.6,51,3.5,-0.7
6.6,51,3,-1
6.6,51,2.5,-1.3
6.6,51,2,-1.7
6.6,51,1.5,-2
6.6,51,1.1,-2.3
6.6,51,0.6,-2.6
6.6,51,0.2,-2.8
6.6,51,-0.1,-2.9
6.7,51,-0.3,-2.9
6.7,52,-0.3,-2.8
6.7,52,-0.3,-2.6
6.7,52,-0.2,-2.4
6.7,52,-0.2,-2.1
6.7,52,-0.1,-1.8
6.7,52,-0.1,-1.5
6.7,52,-0.2,-1.1
6.7,52,-0.3,-0.7
6.7,52,-0.4,-0.2
6.7,52,-0.5,0.4
6.7,52,-0.5,1
6.7,52,-0.5,1.6
6.7,52,-0.5,2.1
6.7,52,-0.4,2.6
6.7,52,-0.3,2.9
6.7,52,-0.2,3.2
6.7,52,0.1,3.4
6.7,52,0.4,3.6
6.7,52,0.8,3.7
6.7,52,1.1,3.7
6.7,52,1.4,3.7
6.7,52,1.7,3.6
6.7,52,1.9,3.5
6.7,52,2,3.3
6.8,52,2,3.2
6.8,52,2,2.9
6.8,52,1.8,2.6
6.8,52,1.6,2.1
6.8,52,1.3,1.5
6.8,52,0.9,0.8
6.8,52,0.6,0
6.8,52,0.2,-0.8
6.8,53,-0.2,-1.6
6.8,53,-0.7,-2.3
6.8,53,-1.1,-2.9
6.8,53,-1.5,-3.4
6.8,53,-1.9,-3.8
6.8,53,-2.4,-4.1
6.8,53,-2.8,-4.2
6.8,53,-3.2,-4.2
6.8,53,-3.6,-4.1
6.8,53,-4,-3.8
6.8,53,-4.2,-3.4
6.8,53,-4.3,-2.9
6.8,53,-4.4,-2.4
6.8,53,-4.3,-1.8
6.8,53,-4.1,-1.3
6.8,53,-3.9,-0.8
6.8,53,-3.5,-0.4
6.9,53,-3,0
6.9,53,-2.4,0.3
6.9,53,-1.7,0.6
6.9,53,-0.9,0.9
6.9,53,-0.1,1.1
6.9,53,0.6,1.1
6.9,53,1.2,1.1
6.9,53,1.7,1
6.9,53,2.1,0.8
6.9,53,2.3,0.5
6.9,53,2.5,0.2
6.9,53,2.5,-0.2
6.9,53,2.4,-0.7
6.9,53,2.2,-1.2
6.9,53,2,-1.7
6.9,54,1.9,-2
6.9,54,1.8,-2.3
6.9,54,1.9,-2.4
6.9,54,2,-2.4
6.9,54,2.2,-2.2
6.9,54,2.3,-1.9
6.9,54,2.5,-1.6
6.9,54,2.6,-1.3
6.9,54,2.8,-0.8
6.9,54,2.9,-0.4
7,54,3.1,0.1
7,54,3.2,0.6
7,54,3.3,0.9
7,54,3.4,1.2
7,54,3.3,1.4
7,54,3.1,1.4
7,54,2.8,1.3
7,54,2.6,1.1
7,54,2.4,0.8
7,54,2.4,0.6
7,54,2.4,0.5
7,54,2.4,0.4
7,54,2.5,0.3
7,54,2.5,0.3
7,54,2.5,0.4
7,54,2.4,0.4
7,54,2.3,0.5
7,54,2.3,0.7
7,54,2.3,1.1
7,54,2.3,1.5
7,54,2.4,2.1
7,54,2.5,2.8
7,55,2.6,3.5
7,55,2.6,4.2
7,55,2.5,5
7.1,55,2.4,5.7
7.1,55,2.2,6.4
7.1,55,2,7.1
7.1,55,1.8,7.8
7.1,55,1.5,8.4
7.1,55,1.2,8.8
7.1,55,1,9.1
7.1,55,0.6,9.3
7.1,55,0.3,9.2
7.1,55,-0.1,8.8
7.1,55,-0.4,8.3
7.1,55,-0.7,7.5
7.1,55,-0.9,6.6
7.1,55,-0.9,5.4
7.1,55,-0.8,4.2
7.1,55,-0.6,2.8
7.1,55,-0.3,1.4
7.1,55,0.1,0.1
7.1,55,0.6,-1.1
7.1,55,1,-2.1
7.1,55,1.3,-3
7.1,55,1.4,-3.7
7.1,55,1.3,-4.3
7.1,55,1.1,-4.7
7.1,55,0.7,-5
7.2,55,0.2,-5.3
7.2,55,-0.3,-5.4
7.2,55,-0.7,-5.4
7.2,55,-1,-5.3
7.2,56,-1.3,-5.1
7.2,56,-1.7,-4.8
7.2,56,-2,-4.5
7.2,56,-2.3,-4.1
7.2,56,-2.6,-3.7
7.2,56,-2.9,-3.2
7.2,56,-3.2,-2.8
7.2,56,-3.3,-2.3
7.2,56,-3.5,-1.8
7.2,56,-3.6,-1.3
7.2,56,-3.7,-0.8
7.2,56,-3.7,-0.4
7.2,56,-3.7,0
7.2,56,-3.6,0.4
7.2,56,-3.4,0.8
7.2,56,-3.2,1.2
7.2,56,-3,1.5
7.2,56,-2.8,1.8
7.2,56,-2.6,2.1
7.2,56,-2.5,2.4
7.2,56,-2.4,2.6
7.3,56,-2.2,2.9
7.3,56,-2.1,3.2
7.3,56,-1.9,3.4
7.3,56,-1.7,3.6
7.3,56,-1.6,3.6
7.3,56,-1.5,3.4
7.3,56,-1.6,3.2
7.3,56,-1.8,2.8
7.3,56,-2.1,2.2
7.3,56,-2.5,1.7
7.3,56,-3,1.1
7.3,57,-3.5,0.5
7.3,57,-4.1,-0.1
7.3,57,-4.7,-0.7
7.3,57,-5.3,-1.2
7.3,57,-5.9,-1.6
7.3,57,-6.5,-1.9
7.3,57,-6.9,-2
7.3,57,-7.2,-2
7.3,57,-7.4,-1.9
7.3,57,-7.6,-1.7
7.3,57,-7.6,-1.5
7.3,57,-7.5,-1.4
7.3,57,-7.3,-1.4
7.3,57,-6.9,-1.5
7.4,57,-6.5,-1.6
7.4,57,-5.9,-1.9
7.4,57,-5.1,-2.1
7.4,57,-4.3,-2.4
7.4,57,-3.4,-2.5
7.4,57,-2.5,-2.5
7.4,57,-1.5,-2.3
7.4,57,-0.7,-2
7.4,57,0,-1.7
7.4,57,0.6,-1.3
7.4,57,1,-1
7.4,57,1.4,-0.8
7.4,57,1.8,-0.6
7.4,57,2.1,-0.5
7.4,57,2.4,-0.5
7.4,57,2.8,-0.6
7.4,57,3,-0.7
7.4,57,3.2,-1
7.4,58,3.2,-1.3
7.4,58,3.2,-1.6
7.4,58,3.1,-1.9
7.4,58,2.9,-2.1
7.4,58,2.7,-2.4
7.4,58,2.4,-2.7
7.4,58,2.2,-3
7.5,58,2,-3.3
7.5,58,1.8,-3.6
7.5,58,1.6,-3.7
7.5,58,1.4,-3.9
7.5,58,1.1,-3.9
7.5,58,0.7,-4
7.5,58,0.1,-3.9
7.5,58,-0.5,-3.8
7.5,58,-1.1,-3.7
7.5,58,-1.7,-3.5
7.5,58,-2.3,-3.3
7.5,58,-2.8,-3.1
7.5,58,-3.3,-3
7.5,58,-3.7,-2.9
7.5,58,-4,-2.8
7.5,58,-4.2,-2.8
7.5,58,-4.4,-2.8
7.5,58,-4.4,-2.9
7.5,58,-4.5,-3.1
7.5,58,-4.6,-3.5
7.5,58,-4.6,-4
7.5,58,-4.7,-4.6
7.5,58,-4.6,-5
7.5,58,-4.5,-5.4
7.5,58,-4.3,-5.6
7.6,59,-4,-5.6
7.6,59,-3.6,-5.5
7.6,59,-3.2,-5.2
7.6,59,-2.8,-4.7
7.6,59,-2.3,-4.1
7.6,59,-1.7,-3.5
7.6,59,-1.1,-2.7
7.6,59,-0.5,-2
7.6,59,0.2,-1.1
7.6,59,0.8,-0.3
7.6,59,1.5,0.6
7.6,59,2.2,1.5
7.6,59,2.8,2.3
7.6,59,3.3,3.1
7.6,59,3.7,3.7
7.6,59,3.9,4.1
7.6,59,4,4.3
7.6,59,3.9,4.3
7.6,59,3.6,4.1
7.6,59,3.3,3.7
7.6,59,3,3.3
7.6,59,2.7,2.9
7.6,59,2.4,2.5
7.6,59,2.2,2.2
7.6,59,2.1,2.1
7.7,59,2,2.1
7.7,59,2,2.2
7.7,59,2,2.4
7.7,59,2,2.6
7.7,59,2.1,3
7.7,59,2.2,3.4
7.7,59,2.2,3.8
7.7,60,2.3,4.2
7.7,60,2.4,4.6
7.7,60,2.4,4.9
7.7,60,2.4,5.2
7.7,60,2.3,5.3
7.7,60,2.2,5.4
7.7,60,2.1,5.4
7.7,60,1.9,5.2
7.7,60,1.7,4.9
7.7,60,1.5,4.5
7.7,60,1.2,3.8
7.7,60,0.8,3
7.7,60,0.5,2.1
7.7,60,0.3,1.3
7.7,60,0.2,0.5
7.7,60,0.3,-0.2
7.7,60,0.5,-0.7
7.7,60,0.8,-1.1
7.8,60,1.2,-1.4
7.8,60,1.5,-1.6
7.8,60,1.8,-1.6
7.8,60,2,-1.6
7.8,60,2.1,-1.5
7.8,60,2,-1.4
7.8,60,1.6,-1.4
7.8,60,1.2,-1.3
7.8,60,0.6,-1.2
7.8,60,0,-1.2
7.8,60,-0.5,-1.2
7.8,60,-0.9,-1.2
7.8,60,-1.1,-1.2
7.8,60,-1,-1.2
7.8,61,-0.8,-1.1
7.8,61,-0.3,-1.1
7.8,61,0.3,-0.9
7.8,61,1,-0.7
7.8,61,1.6,-0.5
7.8,61,2.3,-0.2
7.8,61,3,0.1
7.8,61,3.7,0.5
7.8,61,4.3,0.9
7.8,61,4.9,1.3
7.8,61,5.4,1.8
7.9,61,5.8,2.2
7.9,61,6.3,2.8
7.9,61,6.7,3.3
7.9,61,7.2,3.9
7.9,61,7.7,4.4
7.9,61,8.2,4.8
7.9,61,8.6,5
7.9,61,8.9,5
7.9,61,9.1,4.8
7.9,61,9.1,4.5
7.9,61,9,4.1
7.9,61,8.7,3.6
7.9,61,8.2,3.1
7.9,61,7.6,2.7
7.9,61,6.8,2.4
7.9,61,6,2.2
7.9,61,5.2,2.1
7.9,61,4.3,2.1
7.9,61,3.5,2.1
7.9,61,2.7,2
7.9,61,1.9,1.9
7.9,62,1.3,1.8
7.9,62,0.7,1.6
7.9,62,0.3,1.4
7.9,62,0,1.1
8,62,-0.1,0.8
8,62,-0.2,0.5
8,62,-0.3,0.3
8,62,-0.2,0.1
8,62,-0.2,-0.1
8,62,-0.1,-0.2
8,62,0,-0.2
8,62,0.1,-0.2
8,62,0.3,-0.1
8,62,0.4,0.1
8,62,0.5,0.4
8,62,0.5,0.9
8,62,0.4,1.4
8,62,0.3,1.9
8,62,0,2.5
8,62,-0.3,2.9
8,62,-0.7,3.2
8,62,-1.1,3.4
8,62,-1.5,3.4
8,62,-1.9,3.3
8,62,-2.3,3
8,62,-2.6,2.7
8,62,-2.8,2.3
8,62,-2.9,1.8
8,62,-2.9,1.3
8.1,62,-2.7,0.8
8.1,62,-2.4,0.3
8.1,62,-1.9,-0.2
8.1,63,-1.4,-0.8
8.1,63,-0.9,-1.3
8.1,63,-0.5,-1.8
8.1,63,-0.1,-2.4
8.1,63,0.2,-2.8
8.1,63,0.3,-3.3
8.1,63,0.2,-3.8
8.1,63,0.2,-4.2
8.1,63,0.1,-4.4
8.1,63,0,-4.5
8.1,63,0,-4.4
8.1,63,0,-4.2
8.1,63,0,-3.8
8.1,63,-0.1,-3.4
8.1,63,-0.2,-3
8.1,63,-0.4,-2.6
8.1,63,-0.6,-2.3
8.1,63,-0.8,-2
8.1,63,-0.9,-1.8
8.1,63,-1,-1.8
8.1,63,-1.2,-2
8.1,63,-1.4,-2.4
8.2,63,-1.6,-3
8.2,63,-1.9,-3.6
8.2,63,-2.2,-4.4
8.2,63,-2.5,-5.1
8.2,63,-2.8,-5.8
8.2,63,-3.1,-6.4
8.2,63,-3.3,-6.9
8.2,63,-3.5,-7.2
8.2,63,-3.7,-7.4
8.2,63,-3.9,-7.4
8.2,64,-4.1,-7.3
8.2,64,-4.3,-7
8.2,64,-4.5,-6.7
8.2,64,-4.8,-6.3
8.2,64,-5.1,-5.9
8.2,64,-5.4,-5.5
8.2,64,-5.6,-5.1
8.2,64,-5.7,-4.7
8.2,64,-5.7,-4.2
8.2,64,-5.6,-3.6
8.2,64,-5.3,-3
8.2,64,-4.9,-2.2
8.2,64,-4.4,-1.5
8.2,64,-3.9,-0.9
8.2,64,-3.5,-0.3
8.3,64,-2.9,0.2
8.3,64,-2.4,0.6
8.3,64,-1.8,1.1
8.3,64,-1.3,1.4
8.3,64,-0.9,1.7
8.3,64,-0.6,2
8.3,64,-0.3,2.2
8.3,64,0,2.3
8.3,64,0.2,2.3
8.3,64,0.3,2.2
8.3,64,0.2,2
8.3,64,0.1,1.8
8.3,64,0,1.6
8.3,64,-0.1,1.4
8.3,64,-0.2,1.3
8.3,64,0,1.2
8.3,64,0.3,1.2
8.3,65,0.7,1.3
8.3,65,1.1,1.4
8.3,65,1.5,1.4
8.3,65,1.8,1.4
8.3,65,2.1,1.4
8.3,65,2.2,1.4
8.3,65,2.4,1.4
8.3,65,2.5,1.6
8.4,65,2.5,1.9
8.4,65,2.4,2.2
8.4,65,2.3,2.7
8.4,65,2.2,3.2
8.4,65,2,3.7
8.4,65,1.7,4.1
8.4,65,1.5,4.4
8.4,65,1.3,4.7
8.4,65,1.1,5
8.4,65,1.1,5.2
8.4,65,1.2,5.4
8.4,65,1.4,5.6
8.4,65,1.6,5.8
8.4,65,1.9,5.8
8.4,65,2.1,5.7
8.4,65,2.2,5.6
8.4,65,2.3,5.4
8.4,65,2.3,5.2
8.4,65,2.3,4.8
8.4,65,2.2,4.3
8.4,65,2.1,3.8
8.4,65,1.9,3.3
8.4,65,1.7,2.7
8.4,65,1.3,2.1
8.4,66,0.8,1.6
8.5,66,0.3,1.1
8.5,66,-0.2,0.8
8.5,66,-0.7,0.6
8.5,66,-1,0.5
8.5,66,-1.1,0.6
8.5,66,-1.1,0.7
8.5,66,-0.9,1
8.5,66,-0.6,1.2
8.5,66,-0.2,1.4
8.5,66,0.3,1.6
8.5,66,0.7,1.8
8.5,66,1.1,1.8
8.5,66,1.3,1.8
8.5,66,1.4,1.6
8.5,66,1.4,1.4
8.5,66,1.3,1.2
8.5,66,1.2,1
8.5,66,1.1,0.9
8.5,66,1.1,0.8
8.5,66,1.2,0.8
8.5,66,1.2,0.8
8.5,66,1.2,0.8
8.5,66,1.2,0.9
8.5,66,1,0.9
8.5,66,0.8,0.9
8.6,66,0.4,1
8.6,66,0.1,1.2
8.6,66,-0.1,1.4
8.6,66,-0.4,1.7
8.6,66,-0.7,2
8.6,66,-0.9,2.3
8.6,67,-1,2.6
8.6,67,-1.1,2.8
8.6,67,-1,3.1
8.6,67,-0.8,3.4
8.6,67,-0.5,3.6
8.6,67,-0.1,3.9
8.6,67,0.3,4.1
8.6,67,0.8,4.2
8.6,67,1.1,4.1
8.6,67,1.4,3.9
8.6,67,1.4,3.5
8.6,67,1.4,3
8.6,67,1.2,2.5
8.6,67,1,2
8.6,67,0.7,1.5
8.6,67,0.4,1
8.6,67,-0.1,0.5
8.6,67,-0.7,0
8.6,67,-1.5,-0.5
8.7,67,-2.4,-1.1
8.7,67,-3.5,-1.7
8.7,67,-4.6,-2.4
8.7,67,-5.7,-3.1
8.7,67,-6.8,-3.8
8.7,67,-7.8,-4.5
8.7,67,-8.6,-5.1
8.7,67,-9.2,-5.6
8.7,67,-9.6,-6
8.7,67,-9.9,-6.5
8.7,67,-10,-6.8
8.7,67,-10,-7.1
8.7,67,-9.8,-7.3
8.7,68,-9.2,-7.2
8.7,68,-8.4,-6.9
8.7,68,-7.2,-6.5
8.7,68,-5.8,-6
8.7,68,-4.2,-5.3
8.7,68,-2.5,-4.6
8.7,68,-0.6,-3.8
8.7,68,1.2,-3
8.7,68,3,-2.2
8.7,68,4.6,-1.4
8.7,68,5.9,-0.7
8.7,68,7,-0.1
8.8,68,7.7,0.4
8.8,68,8.2,0.8
8.8,68,8.3,1
8.8,68,8.3,1.2
8.8,68,8,1.2
8.8,68,7.6,1.1
8.8,68,7,0.9
8.8,68,6.2,0.7
8.8,68,5.3,0.3
8.8,68,4.2,0
8.8,68,2.9,-0.5
8.8,68,1.7,-0.9
8.8,68,0.3,-1.3
8.8,68,-0.9,-1.7
8.8,68,-2,-2
8.8,68,-2.9,-2.3
8.8,68,-3.7,-2.7
8.8,68,-4.3,-3.1
8.8,68,-4.8,-3.5
8.8,68,-5.2,-3.9
8.8,69,-5.4,-4.3
8.8,69,-5.5,-4.6
8.8,69,-5.6,-4.9
8.8,69,-5.5,-4.9
8.8,69,-5.4,-4.9
8.9,69,-5.2,-4.8
8.9,69,-5,-4.5
8.9,69,-4.8,-4.2
8.9,69,-4.5,-3.8
8.9,69,-4.2,-3.4
8.9,69,-3.9,-2.8
8.9,69,-3.4,-2.2
8.9,69,-3,-1.5
8.9,69,-2.5,-0.8
8.9,69,-1.9,0
8.9,69,-1.4,0.7
8.9,69,-0.8,1.4
8.9,69,-0.2,1.8
8.9,69,0.5,2
8.9,69,1.2,2.1
8.9,69,1.9,1.9
8.9,69,2.6,1.6
8.9,69,3.4,1.3
8.9,69,4.1,0.8
8.9,69,4.8,0.3
8.9,69,5.4,-0.1
8.9,69,5.9,-0.6
8.9,69,6.4,-0.9
8.9,69,6.8,-1.1
8.9,69,7.1,-1.2
9,69,7.3,-1.2
9,69,7.4,-1
9,70,7.2,-0.8
9,70,6.9,-0.5
9,70,6.3,-0.2
9,70,5.5,0
9,70,4.6,0.2
9,70,3.5,0.5
9,70,2.3,0.8
9,70,1.2,1.1
9,70,0.1,1.3
9,70,-0.8,1.6
9,70,-1.6,1.7
9,70,-2.3,1.6
9,70,-2.8,1.4
9,70,-3.3,1.2
9,70,-3.5,0.9
9,70,-3.5,0.6
9,70,-3.3,0.4
9,70,-2.9,0.2
9,70,-2.4,0
9,70,-1.8,-0.1
9,70,-1.2,-0.3
9,70,-0.7,-0.3
9,70,-0.2,-0.4
9.1,70,0.2,-0.3
9.1,70,0.5,-0.2
9.1,70,0.8,-0.1
9.1,70,0.9,0
9.1,70,0.9,0.2
9.1,70,1,0.4
9.1,70,1,0.6
9.1,70,1,0.8
9.1,70,1,0.9
9.1,71,1,0.8
9.1,71,1,0.6
9.1,71,1,0.2
9.1,71,0.9,-0.4
9.1,71,0.8,-1.1
9.1,71,0.7,-1.9
9.1,71,0.7,-2.7
9.1,71,0.6,-3.6
9.1,71,0.5,-4.4
9.1,71,0.5,-5.1
9.1,71,0.3,-5.7
9.1,71,0.1,-6.1
9.1,71,-0.3,-6.3
9.1,71,-0.8,-6.4
9.1,71,-1.4,-6.4
9.1,71,-2.1,-6.3
9.2,71,-2.8,-6.1
9.2,71,-3.5,-5.9
9.2,71,-4.2,-5.5
9.2,71,-4.9,-5.2
9.2,71,-5.6,-4.8
9.2,71,-6.2,-4.5
9.2,71,-6.7,-4.3
9.2,71,-7.1,-4.1
9.2,71,-7.4,-4
9.2,71,-7.5,-3.9
9.2,71,-7.5,-3.8
9.2,71,-7.3,-3.5
9.2,71,-7,-3.2
9.2,71,-6.5,-2.7
9.2,71,-5.8,-2.1
9.2,71,-4.9,-1.4
9.2,72,-3.8,-0.8
9.2,72,-2.5,-0.1
9.2,72,-1.1,0.5
9.2,72,0.3,1
9.2,72,1.6,1.4
9.2,72,2.8,1.6
9.2,72,3.8,1.8
9.2,72,4.7,1.9
9.2,72,5.5,2
9.3,72,6.1,2.1
9.3,72,6.7,2.1
9.3,72,7.3,2.1
9.3,72,7.8,2.2
9.3,72,8.2,2.2
9.3,72,8.6,2.2
9.3,72,8.8,2.1
9.3,72,8.9,2
9.3,72,8.7,1.7
9.3,72,8.3,1.4
9.3,72,7.8,1
9.3,72,7.1,0.6
9.3,72,6.4,0.1
9.3,72,5.7,-0.2
9.3,72,5,-0.4
9.3,72,4.4,-0.5
9.3,72,3.8,-0.4
9.3,72,3.2,-0.3
9.3,72,2.6,-0.2
9.3,72,2,-0.1
9.3,72,1.3,0
9.3,72,0.6,0.1
9.3,72,-0.3,0.2
9.3,73,-1.3,0.4
9.3,73,-2.3,0.5
9.4,73,-3.3,0.7
9.4,73,-4.3,0.8
9.4,73,-5.3,0.9
9.4,73,-6.1,1
9.4,73,-6.8,1.1
9.4,73,-7.3,1.4
9.4,73,-7.5,1.8
9.4,73,-7.4,2.4
9.4,73,-7,3.1
9.4,73,-6.5,3.9
9.4,73,-5.9,4.7
9.4,73,-5.1,5.4
9.4,73,-4.3,5.9
9.4,73,-3.5,6.2
9.4,73,-2.7,6.4
9.4,73,-1.8,6.6
9.4,73,-1,6.6
9.4,73,-0.1,6.6
9.4,73,0.6,6.5
9.4,73,1.1,6.3
9.4,73,1.3,5.9
9.4,73,1.3,5.4
9.4,73,1.1,4.8
9.4,73,0.8,4.2
9.4,73,0.4,3.7
9.5,73,0.1,3.4
9.5,73,-0.2,3.1
9.5,73,-0.5,3
9.5,73,-0.8,3
9.5,73,-1.2,3.1
9.5,74,-1.6,3.3
9.5,74,-1.9,3.6
9.5,74,-2.3,3.9
9.5,74,-2.5,4.3
9.5,74,-2.6,4.7
9.5,74,-2.6,5
9.5,74,-2.5,5.3
9.5,74,-2.3,5.5
9.5,74,-2.1,5.7
9.5,74,-1.8,5.7
9.5,74,-1.6,5.7
9.5,74,-1.2,5.6
9.5,74,-0.9,5.4
9.5,74,-0.4,5.1
9.5,74,0.2,4.7
9.5,74,0.8,4.2
9.5,74,1.4,3.6
9.5,74,2,2.9
9.5,74,2.6,2.2
9.5,74,3,1.4
9.6,74,3.3,0.5
9.6,74,3.4,-0.4
9.6,74,3.4,-1.3
9.6,74,3.3,-2.1
9.6,74,3.2,-2.7
9.6,74,3.2,-3.1
9.6,74,3.1,-3.3
9.6,74,3.2,-3.2
9.6,74,3.3,-2.8
9.6,74,3.5,-2.2
9.6,74,3.8,-1.3
9.6,74,4.1,-0.4
9.6,75,4.5,0.7
9.6,75,4.8,1.7
9.6,75,5.1,2.7
9.6,75,5.3,3.6
9.6,75,5.4,4.4
9.6,75,5.5,5.1
9.6,75,5.5,5.7
9.6,75,5.5,6.2
9.6,75,5.5,6.5
9.6,75,5.6,6.7
9.6,75,5.6,6.7
9.6,75,5.7,6.5
9.6,75,5.9,6.1
9.7,75,6.1,5.5
9.7,75,6.4,4.8
9.7,75,6.7,4.1
9.7,75,7.1,3.3
9.7,75,7.3,2.4
9.7,75,7.4,1.6
9.7,75,7.4,0.8
9.7,75,7.2,0
9.7,75,6.9,-0.7
9.7,75,6.5,-1.3
9.7,75,5.9,-1.7
9.7,75,5.3,-2.1
9.7,75,4.6,-2.3
9.7,75,3.8,-2.5
9.7,75,2.9,-2.5
9.7,75,2.1,-2.5
9.7,75,1.3,-2.4
9.7,75,0.6,-2.2
9.7,75,0,-2
9.7,76,-0.6,-1.9
9.7,76,-1.1,-1.7
9.7,76,-1.5,-1.7
9.7,76,-2,-1.6
9.7,76,-2.3,-1.7
9.7,76,-2.7,-1.8
9.8,76,-3,-1.9
9.8,76,-3.2,-2.1
9.8,76,-3.5,-2.3
9.8,76,-3.6,-2.6
9.8,76,-3.8,-2.9
9.8,76,-3.8,-3.3
9.8,76,-3.9,-3.7
9.8,76,-3.9,-4.1
9.8,76,-3.9,-4.5
9.8,76,-3.8,-4.7
9.8,76,-3.8,-5
9.8,76,-3.8,-5.1
9.8,76,-3.7,-5.1
9.8,76,-3.5,-5.1
9.8,76,-3.3,-5.1
9.8,76,-3,-5
9.8,76,-2.6,-5
9.8,76,-2.3,-5
9.8,76,-2,-4.9
9.8,76,-1.8,-4.8
9.8,76,-1.6,-4.7
9.8,76,-1.5,-4.5
9.8,76,-1.4,-4.3
9.8,76,-1.3,-4
9.8,76,-1.1,-3.7
9.9,76,-1,-3.4
9.9,77,-0.9,-3.1
9.9,77,-0.8,-2.9
9.9,77,-0.6,-2.6
9.9,77,-0.5,-2.3
9.9,77,-0.4,-2
9.9,77,-0.3,-1.6
9.9,77,-0.2,-1.1
9.9,77,-0.1,-0.7
9.9,77,0.1,-0.2
9.9,77,0.3,0.2
9.9,77,0.5,0.6
9.9,77,0.8,1
9.9,77,1.1,1.2
9.9,77,1.4,1.3
9.9,77,1.6,1.3
9.9,77,1.8,1.2
9.9,77,1.9,0.9
9.9,77,2,0.5
9.9,77,2,0.1
9.9,77,1.9,-0.5
9.9,77,1.7,-1.1
9.9,77,1.5,-1.7
9.9,77,1.2,-2.1
9.9,77,0.8,-2.6
10,77,0.4,-2.9
10,77,-0.1,-3.2
10,77,-0.6,-3.4
10,77,-1.1,-3.5
10,77,-1.7,-3.6
10,77,-2.2,-3.6
10,77,-2.7,-3.6
10,77,-3.1,-3.4
10,78,-3.4,-3.2
10,78,-3.7,-2.9
10,78,-3.9,-2.4
10,78,-3.9,-2
10,78,-3.9,-1.5
10,78,-3.7,-1.1
10,78,-3.3,-0.8
10,78,-2.9,-0.5
10,78,-2.4,-0.3
10,78,-1.8,-0.1
10,78,-1.2,0
10,78,-0.5,0
10,78,0.1,-0.1
10,78,0.7,-0.4
10,78,1.3,-0.8
10,78,1.8,-1.2
10,78,2.2,-1.8
10.1,78,2.7,-2.3
10.1,78,3,-2.7
10.1,78,3.3,-3.1
10.1,78,3.5,-3.2
10.1,78,3.5,-3.2
10.1,78,3.4,-3
10.1,78,3.3,-2.6
10.1,78,3,-2.1
10.1,78,2.7,-1.5
10.1,78,2.3,-0.8
10.1,78,1.8,0
10.1,78,1.3,0.8
10.1,78,0.8,1.6
10.1,78,0.3,2.4
10.1,78,-0.2,3
10.1,79,-0.6,3.5
10.1,79,-0.9,3.9
10.1,79,-1,4.1
10.1,79,-0.9,4.2
10.1,79,-0.8,4.2
10.1,79,-0.6,4.1
10.1,79,-0.3,3.9
10.1,79,-0.1,3.6
10.1,79,0.1,3.2
10.1,79,0.3,2.8
10.2,79,0.4,2.4
10.2,79,0.3,1.9
10.2,79,0.1,1.4
10.2,79,-0.2,0.9
10.2,79,-0.5,0.6
10.2,79,-0.8,0.3
10.2,79,-1.1,0.2
10.2,79,-1.3,0.2
10.2,79,-1.5,0.3
10.2,79,-1.7,0.5
10.2,79,-2,0.7
10.2,79,-2.3,0.8
10.2,79,-2.5,0.9
10.2,79,-2.8,1
10.2,79,-3,1.1
10.2,79,-3.2,1.1
10.2,79,-3.3,1.2
10.2,79,-3.4,1.2
10.2,79,-3.6,1.1
10.2,79,-3.8,1.1
10.2,79,-4,1
10.2,79,-4.3,0.9
10.2,80,-4.6,0.9
10.2,80,-4.9,0.8
10.2,80,-5.2,0.7
10.3,80,-5.6,0.5
10.3,80,-6.1,0.4
10.3,80,-6.7,0.2
10.3,80,-7.3,0.1
10.3,80,-7.8,0.1
10.3,80,-8.4,0.2
10.3,80,-8.8,0.5
10.3,80,-9,0.9
10.3,80,-9.1,1.4
10.3,80,-9.1,1.9
10.3,80,-8.9,2.5
10.3,80,-8.5,3
10.3,80,-8,3.5
10.3,80,-7.4,3.9
10.3,80,-6.8,4.2
10.3,80,-6.2,4.4
10.3,80,-5.7,4.3
10.3,80,-5.2,4.1
10.3,80,-4.8,3.7
10.3,80,-4.5,3.1
10.3,80,-4.2,2.4
10.3,80,-4,1.6
10.3,80,-3.9,0.7
10.3,80,-3.8,-0.3
10.3,80,-3.9,-1.4
10.4,80,-4,-2.5
10.4,80,-4.2,-3.6
10.4,80,-4.2,-4.5
10.4,80,-4.1,-5.2
10.4,81,-3.8,-5.6
10.4,81,-3.4,-5.8
10.4,81,-2.9,-5.7
10.4,81,-2.4,-5.5
10.4,81,-2,-5.2
10.4,81,-1.7,-4.8
10.4,81,-1.5,-4.3
10.4,81,-1.5,-4
10.4,81,-1.7,-3.7
10.4,81,-2,-3.6
10.4,81,-2.6,-3.6
10.4,81,-3.3,-3.7
10.4,81,-4,-3.8
10.4,81,-4.5,-4
10.4,81,-4.8,-4.1
10.4,81,-4.9,-4.1
10.4,81,-4.7,-4
10.4,81,-4.4,-3.8
10.4,81,-3.9,-3.5
10.4,81,-3.3,-3.1
10.4,81,-2.5,-2.6
10.5,81,-1.6,-2
10.5,81,-0.6,-1.3
10.5,81,0.5,-0.7
10.5,81,1.5,0
10.5,81,2.4,0.5
10.5,81,3.3,0.9
10.5,81,4.1,1.3
10.5,81,4.9,1.5
10.5,81,5.6,1.7
10.5,81,6.3,1.8
10.5,81,6.9,1.8
10.5,82,7.4,1.9
10.5,82,7.8,1.9
10.5,82,8,1.9
10.5,82,8.1,2
10.5,82,8,2
10.5,82,7.8,2
10.5,82,7.3,2
10.5,82,6.6,1.9
10.5,82,5.7,1.7
10.5,82,4.8,1.5
10.5,82,3.8,1.3
10.5,82,2.9,1.1
10.5,82,2.1,0.9
10.5,82,1.4,0.7
10.6,82,0.8,0.5
10.6,82,0.5,0.3
10.6,82,0.3,0.2
10.6,82,0.3,0
10.6,82,0.3,-0.2
10.6,82,0.5,-0.4
10.6,82,0.7,-0.6
10.6,82,1.1,-0.8
10.6,82,1.5,-0.9
10.6,82,2,-1.1
10.6,82,2.5,-1.2
10.6,82,2.8,-1.3
10.6,82,3.1,-1.4
10.6,82,3.2,-1.5
10.6,82,3.2,-1.6
10.6,82,3.1,-1.8
10.6,82,2.9,-1.8
10.6,82,2.7,-1.8
10.6,83,2.4,-1.7
10.6,83,2,-1.6
10.6,83,1.7,-1.3
10.6,83,1.4,-1.1
10.6,83,1.3,-0.8
10.6,83,1.3,-0.4
10.6,83,1.4,-0.1
10.7,83,1.6,0.3
10.7,83,1.8,0.6
10.7,83,2.1,0.9
10.7,83,2.4,1.1
10.7,83,2.8,1.3
10.7,83,3.2,1.5
10.7,83,3.6,1.6
10.7,83,4.1,1.6
10.7,83,4.7,1.6
10.7,83,5.3,1.6
10.7,83,6,1.5
10.7,83,6.7,1.3
10.7,83,7.4,1
10.7,83,8,0.7
10.7,83,8.5,0.4
10.7,83,9,0
10.7,83,9.3,-0.2
10.7,83,9.5,-0.5
10.7,83,9.5,-0.6
10.7,83,9.3,-0.6
10.7,83,9.1,-0.6
10.7,83,8.7,-0.5
10.7,83,8.3,-0.3
10.7,83,7.7,0
10.7,83,7.2,0.2
10.8,84,6.6,0.6
10.8,84,6.1,0.9
10.8,84,5.6,1.3
10.8,84,5.2,1.7
10.8,84,4.9,2.1
10.8,84,4.6,2.6
10.8,84,4.4,3
10.8,84,4.1,3.4
10.8,84,3.9,3.6
10.8,84,3.7,3.7
10.8,84,3.5,3.6
10.8,84,3.3,3.4
10.8,84,3.1,3.1
10.8,84,2.8,2.8
10.8,84,2.4,2.4
10.8,84,2,2
10.8,84,1.6,1.6
10.8,84,1.1,1.3
10.8,84,0.7,1.2
10.8,84,0.3,1.1
10.8,84,-0.1,1.2
10.8,84,-0.4,1.3
10.8,84,-0.7,1.4
10.8,84,-0.9,1.5
10.8,84,-1,1.6
10.9,84,-1.1,1.6
10.9,84,-1.2,1.5
10.9,84,-1.2,1.3
10.9,84,-1.1,1.1
10.9,84,-0.9,0.9
10.9,84,-0.8,0.7
10.9,84,-0.7,0.6
10.9,85,-0.5,0.4
10.9,85,-0.3,0.3
10.9,85,-0.1,0.2
10.9,85,0,0
10.9,85,0,-0.3
10.9,85,0,-0.6
10.9,85,-0.1,-1.1
10.9,85,-0.2,-1.5
10.9,85,-0.3,-1.9
10.9,85,-0.4,-2.1
10.9,85,-0.4,-2.1
10.9,85,-0.5,-2
10.9,85,-0.5,-1.6
10.9,85,-0.6,-1.1
10.9,85,-0.6,-0.5
10.9,85,-0.6,0.2
10.9,85,-0.5,0.9
10.9,85,-0.4,1.6
11,85,-0.3,2.2
11,85,-0.2,2.7
11,85,-0.1,3.1
11,85,-0.2,3.4
11,85,-0.3,3.4
11,85,-0.5,3.4
11,85,-0.8,3.2
11,85,-1.2,2.8
11,85,-1.8,2.3
11,85,-2.4,1.6
11,85,-3.1,0.8
11,85,-3.9,-0.2
11,85,-4.7,-1.2
11,85,-5.5,-2.2
11,86,-6.1,-3.2
11,86,-6.6,-3.9
11,86,-6.9,-4.5
11,86,-7,-4.8
11,86,-6.9,-4.9
11,86,-6.7,-4.9
11,86,-6.3,-4.6
11,86,-5.8,-4.3
11,86,-5.2,-3.8
11,86,-4.6,-3.2
11,86,-4.1,-2.5
11.1,86,-3.5,-1.8
11.1,86,-3.1,-1.1
11.1,86,-2.6,-0.4
11.1,86,-2.3,0.2
11.1,86,-2.1,0.7
11.1,86,-1.9,1.1
11.1,86,-1.8,1.4
11.1,86,-1.7,1.6
11.1,86,-1.7,1.7
11.1,86,-1.6,1.7
11.1,86,-1.6,1.7
11.1,86,-1.5,1.7
11.1,86,-1.4,1.6
11.1,86,-1.4,1.5
11.1,86,-1.3,1.4
11.1,86,-1.4,1.3
11.1,86,-1.4,1.1
11.1,86,-1.5,0.9
11.1,86,-1.5,0.6
11.1,86,-1.6,0.3
11.1,86,-1.6,0
11.1,87,-1.7,-0.4
11.1,87,-1.8,-0.8
11.1,87,-1.9,-1.3
11.1,87,-2.1,-1.7
11.2,87,-2.3,-2.2
11.2,87,-2.5,-2.6
11.2,87,-2.7,-2.9
11.2,87,-2.8,-3.1
11.2,87,-3,-3.3
11.2,87,-3.1,-3.3
11.2,87,-3.1,-3.3
11.2,87,-3,-3.3
11.2,87,-2.8,-3.1
11.2,87,-2.6,-2.9
11.2,87,-2.2,-2.5
11.2,87,-1.9,-2.1
11.2,87,-1.6,-1.6
11.2,87,-1.2,-0.9
11.2,87,-0.8,-0.1
11.2,87,-0.5,0.7
11.2,87,-0.2,1.6
11.2,87,0.1,2.4
11.2,87,0.2,3.1
11.2,87,0.1,3.7
11.2,87,0,4
11.2,87,-0.3,4.2
11.2,87,-0.7,4.3
11.2,87,-1.1,4.1
11.2,87,-1.7,3.7
11.3,87,-2.3,3.1
11.3,87,-3,2.3
11.3,87,-3.5,1.4
11.3,88,-3.8,0.6
11.3,88,-3.9,-0.2
11.3,88,-3.7,-0.9
11.3,88,-3.2,-1.4
11.3,88,-2.6,-1.6
11.3,88,-1.9,-1.7
11.3,88,-1.1,-1.6
11.3,88,-0.4,-1.4
11.3,88,0.3,-1.1
11.3,88,1.1,-0.7
11.3,88,1.7,-0.2
11.3,88,2.3,0.4
11.3,88,2.8,1
11.3,88,3.1,1.6
11.3,88,3.3,2.2
11.3,88,3.3,2.7
11.3,88,3.2,3.2
11.3,88,3.1,3.5
11.3,88,2.9,3.8
11.3,88,2.7,3.9
11.3,88,2.4,3.9
11.3,88,2.1,3.8
11.4,88,1.7,3.4
11.4,88,1.2,2.8
11.4,88,0.7,2
11.4,88,0.2,1.1
11.4,88,-0.3,0.2
11.4,88,-0.6,-0.7
11.4,88,-0.8,-1.6
11.4,88,-0.9,-2.4
11.4,88,-1,-3.2
11.4,88,-1.1,-3.8
11.4,89,-1.2,-4.4
11.4,89,-1.2,-4.9
11.4,89,-1.3,-5.3
11.4,89,-1.4,-5.6
11.4,89,-1.5,-5.8
11.4,89,-1.5,-5.9
11.4,89,-1.7,-5.9
11.4,89,-1.8,-5.8
11.4,89,-2,-5.5
11.4,89,-2.1,-5.1
11.4,89,-2.2,-4.6
11.4,89,-2.2,-3.9
11.4,89,-2.1,-3.1
11.4,89,-1.9,-2.4
11.4,89,-1.7,-1.6
11.5,89,-1.5,-1
11.5,89,-1.2,-0.4
11.5,89,-1,0.1
11.5,89,-0.8,0.5
11.5,89,-0.6,0.9
11.5,89,-0.4,1.4
11.5,89,-0.3,1.8
11.5,89,-0.1,2.3
11.5,89,0.1,2.9
11.5,89,0.3,3.4
11.5,89,0.5,3.8
11.5,89,0.6,4.1
11.5,89,0.8,4.3
11.5,89,1,4.4
11.5,89,1.3,4.3
11.5,89,1.5,4.2
11.5,89,1.7,4
11.5,90,1.9,3.7
11.5,90,2,3.5
11.5,90,2.3,3.3
11.5,90,2.6,3
11.5,90,3.1,2.8
11.5,90,3.7,2.6
11.5,90,4.5,2.3
11.5,90,5.2,2.2
11.6,90,6,2.1
11.6,90,6.8,2.2
11.6,90,7.4,2.3
11.6,90,8,2.5
11.6,90,8.5,2.9
11.6,90,8.8,3.3
11.6,90,8.9,3.8
11.6,90,8.8,4.3
11.6,90,8.5,4.8
11.6,90,8.1,5.5
11.6,90,7.6,6.1
11.6,90,7.1,6.8
11.6,90,6.5,7.5
11.6,90,5.9,8.2
11.6,90,5.5,8.7
11.6,90,5.1,9
11.6,90,4.9,9
11.6,90,4.8,8.7
11.6,90,4.7,8.1
11.6,90,4.8,7.3
11.6,90,5.1,6.3
11.6,90,5.4,5.2
11.6,90,5.8,4
11.6,90,6.3,2.6
11.6,91,6.7,1.2
11.7,91,7,-0.2
11.7,91,7.2,-1.6
11.7,91,7.2,-2.9
11.7,91,7.1,-3.9
11.7,91,6.9,-4.8
11.7,91,6.5,-5.3
11.7,91,5.9,-5.8
11.7,91,5.3,-6
11.7,91,4.5,-6.2
11.7,91,3.7,-6.2
11.7,91,2.8,-6.1
11.7,91,1.9,-5.8
11.7,91,0.9,-5.4
11.7,91,-0.1,-4.9
11.7,91,-1,-4.3
11.7,91,-1.8,-3.6
11.7,91,-2.5,-3
11.7,91,-3.1,-2.3
11.7,91,-3.5,-1.7
11.7,91,-4,-1.2
11.7,91,-4.3,-0.7
11.7,91,-4.7,-0.3
11.7,91,-5,0
11.7,91,-5.3,0.2
11.7,91,-5.7,0.3
11.8,91,-6,0.3
11.8,91,-6.3,0.3
11.8,91,-6.5,0.2
11.8,91,-6.6,0.2
11.8,91,-6.5,0.1
11.8,91,-6.4,0
11.8,92,-6.3,-0.2
11.8,92,-6.1,-0.3
11.8,92,-5.9,-0.5
11.8,92,-5.6,-0.7
11.8,92,-5.2,-0.9
11.8,92,-4.7,-1.1
11.8,92,-4.2,-1.2
11.8,92,-3.6,-1.2
11.8,92,-3.1,-1.3
11.8,92,-2.5,-1.3
11.8,92,-2,-1.4
11.8,92,-1.5,-1.4
11.8,92,-1.1,-1.3
11.8,92,-0.8,-1.3
11.8,92,-0.4,-1.2
11.8,92,-0.1,-1.2
11.8,92,0.2,-1.1
11.8,92,0.5,-1.1
11.8,92,0.6,-1.3
11.9,92,0.6,-1.5
11.9,92,0.5,-1.9
11.9,92,0.3,-2.3
11.9,92,-0.1,-2.8
11.9,92,-0.5,-3.2
11.9,92,-1,-3.6
11.9,92,-1.5,-3.9
11.9,92,-2.2,-4.2
11.9,92,-2.9,-4.5
11.9,92,-3.7,-4.6
11.9,92,-4.3,-4.7
11.9,92,-4.9,-4.6
11.9,92,-5.3,-4.5
11.9,93,-5.7,-4.3
11.9,93,-6,-4.1
11.9,93,-6.3,-3.9
11.9,93,-6.5,-3.7
11.9,93,-6.7,-3.4
11.9,93,-6.9,-3.3
11.9,93,-7.1,-3.2
11.9,93,-7.2,-3.1
11.9,93,-7.2,-3.2
11.9,93,-7.2,-3.3
11.9,93,-7.1,-3.3
11.9,93,-6.9,-3.4
12,93,-6.5,-3.4
12,93,-6.1,-3.5
12,93,-5.8,-3.5
12,93,-5.5,-3.5
12,93,-5.3,-3.5
12,93,-5.3,-3.5
12,93,-5.3,-3.6
12,93,-5.4,-3.7
12,93,-5.6,-3.9
12,93,-5.7,-4
12,93,-5.9,-4.1
12,93,-6,-4.2
12,93,-6.1,-4.2
12,93,-6.1,-4
12,93,-6,-3.7
12,93,-5.9,-3.3
12,93,-5.6,-2.7
12,93,-5.4,-2
12,93,-5.1,-1.2
12,93,-4.8,-0.5
12,94,-4.5,0.2
12,94,-4.1,0.8
12,94,-3.6,1.3
12,94,-3.1,1.8
12,94,-2.6,2
12.1,94,-2.1,2.1
12.1,94,-1.5,2.2
12.1,94,-0.9,2.2
12.1,94,-0.3,2.2
12.1,94,0.5,2.2
12.1,94,1.2,2.3
12.1,94,1.9,2.5
12.1,94,2.6,2.8
12.1,94,3.3,3.2
12.1,94,3.8,3.6
12.1,94,4.2,3.8
12.1,94,4.4,4
12.1,94,4.5,4
12.1,94,4.5,3.8
12.1,94,4.2,3.4
12.1,94,3.7,2.7
12.1,94,2.9,1.8
12.1,94,2.1,0.7
12.1,94,1.2,-0.5
12.1,94,0.3,-1.7
12.1,94,-0.4,-2.9
12.1,94,-0.8,-3.9
12.1,94,-1,-4.7
12.1,94,-0.7,-5.4
12.1,94,-0.2,-5.7
12.2,94,0.6,-5.7
12.2,94,1.7,-5.3
12.2,95,2.9,-4.7
12.2,95,4.2,-3.7
12.2,95,5.5,-2.5
12.2,95,6.7,-1.1
12.2,95,7.7,0.3
12.2,95,8.5,1.7
12.2,95,9.1,3.1
12.2,95,9.5,4.3
12.2,95,9.6,5.3
12.2,95,9.6,6.1
12.2,95,9.4,6.8
12.2,95,9,7.2
12.2,95,8.6,7.5
12.2,95,8.1,7.5
12.2,95,7.6,7.5
12.2,95,7.1,7.3
12.2,95,6.5,7.1
12.2,95,5.9,6.9
12.2,95,5.3,6.7
12.2,95,4.8,6.4
12.2,95,4.3,6.2
12.2,95,3.9,6.1
12.2,95,3.7,5.9
12.3,95,3.4,5.8
12.3,95,3.3,5.7
12.3,95,3.1,5.7
12.3,95,3,5.6
12.3,95,2.9,5.6
12.3,95,2.9,5.6
12.3,95,2.9,5.4
12.3,95,2.9,5.2
12.3,95,2.9,5
12.3,96,3,4.7
12.3,96,3,4.3
12.3,96,2.9,4
12.3,96,2.8,3.6
12.3,96,2.7,3.2
12.3,96,2.5,2.7
12.3,96,2.3,2.2
12.3,96,2,1.5
12.3,96,1.8,0.8
12.3,96,1.6,0.2
12.3,96,1.3,-0.4
12.3,96,1.1,-0.9
12.3,96,0.9,-1.3
12.3,96,0.7,-1.5
12.3,96,0.5,-1.6
12.3,96,0.3,-1.6
12.4,96,0.2,-1.5
12.4,96,0.1,-1.2
12.4,96,0,-1
12.4,96,0,-0.6
12.4,96,0.1,-0.3
12.4,96,0.3,0.1
12.4,96,0.4,0.5
12.4,96,0.6,0.9
12.4,96,0.7,1.2
12.4,96,0.7,1.6
12.4,96,0.7,1.9
12.4,96,0.6,2.2
12.4,96,0.6,2.5
12.4,96,0.6,2.7
12.4,96,0.6,2.9
12.4,96,0.6,2.9
12.4,97,0.6,2.9
12.4,97,0.6,2.8
12.4,97,0.5,2.6
12.4,97,0.5,2.4
12.4,97,0.5,2.2
12.4,97,0.5,2
12.4,97,0.5,1.7
12.4,97,0.4,1.5
12.4,97,0.2,1.1
12.5,97,0.1,0.8
12.5,97,0,0.5
12.5,97,-0.1,0.2
12.5,97,0,0
12.5,97,0.1,-0.3
12.5,97,0.2,-0.6
12.5,97,0.3,-0.9
12.5,97,0.3,-1.2
12.5,97,0.3,-1.7
12.5,97,0.2,-2.1
12.5,97,0.1,-2.7
12.5,97,-0.1,-3.3
12.5,97,-0.3,-3.9
12.5,97,-0.6,-4.5
12.5,97,-0.9,-5
12.5,97,-1.3,-5.4
12.5,97,-1.8,-5.6
12.5,97,-2.2,-5.7
12.5,97,-2.7,-5.6
12.5,97,-3.2,-5.3
12.5,97,-3.6,-4.9
12.5,97,-4.1,-4.5
12.5,97,-4.4,-3.9
12.5,98,-4.7,-3.4
12.5,98,-4.9,-2.9
12.6,98,-5.1,-2.4
12.6,98,-5.3,-2
12.6,98,-5.4,-1.6
12.6,98,-5.4,-1.3
12.6,98,-5.3,-1
12.6,98,-5.1,-0.8
12.6,98,-4.7,-0.6
12.6,98,-4.2,-0.4
12.6,98,-3.7,-0.3
12.6,98,-3.3,-0.4
12.6,98,-2.9,-0.6
12.6,98,-2.5,-0.9
12.6,98,-2.2,-1.2
12.6,98,-2,-1.6
12.6,98,-1.8,-1.9
12.6,98,-1.8,-2.2
12.6,98,-1.8,-2.5
12.6,98,-1.9,-2.7
12.6,98,-2.2,-2.8
12.6,98,-2.5,-2.8
12.6,98,-2.9,-2.8
12.6,98,-3.2,-2.7
12.6,98,-3.5,-2.7
12.6,98,-3.7,-2.7
12.6,98,-3.8,-2.6
12.7,98,-3.8,-2.6
12.7,98,-3.8,-2.7
12.7,98,-3.7,-2.7
12.7,98,-3.6,-2.8
12.7,98,-3.4,-3
12.7,99,-3.3,-3.3
12.7,99,-3.1,-3.6
12.7,99,-3,-4
12.7,99,-2.8,-4.4
12.7,99,-2.6,-4.8
12.7,99,-2.5,-5.2
12.7,99,-2.4,-5.5
12.7,99,-2.3,-5.6
12.7,99,-2.2,-5.5
12.7,99,-2.1,-5.4
12.7,99,-2.1,-5.3
12.7,99,-2.1,-5.2
12.7,99,-2.2,-5.1
12.7,99,-2.3,-5
12.7,99,-2.5,-5
12.7,99,-2.8,-5
12.7,99,-3,-4.9
12.7,99,-3.3,-4.7
12.7,99,-3.5,-4.5
12.7,99,-3.6,-4.3
12.8,99,-3.6,-4.1
12.8,99,-3.5,-3.9
12.8,99,-3.1,-3.6
12.8,99,-2.6,-3.3
12.8,99,-2.1,-3
12.8,99,-1.5,-2.6
12.8,99,-1.1,-2.3
12.8,99,-0.7,-1.9
12.8,99,-0.4,-1.5
12.8,99,-0.2,-1.2
12.8,99,0,-0.9
12.8,99,0.3,-0.7
12.8,100,0.4,-0.5
12.8,100,0.6,-0.4
12.8,100,0.8,-0.3
12.8,100,1,-0.3
12.8,100,1.3,-0.4
12.8,100,1.6,-0.4
12.8,100,1.9,-0.5
12.8,100,2.3,-0.5
12.8,100,2.7,-0.5
12.8,100,3.1,-0.5
12.8,100,3.4,-0.5
12.8,100,3.7,-0.4
12.8,100,3.9,-0.4
12.9,100,4.1,-0.4
12.9,100,4.2,-0.4
12.9,100,4.3,-0.4
12.9,100,4.3,-0.4
12.9,100,4.3,-0.4
12.9,100,4.2,-0.3
12.9,100,3.9,-0.1
12.9,100,3.5,0.1
12.9,100,3,0.3
12.9,100,2.4,0.6
12.9,100,1.6,0.9
12.9,100,0.8,1.2
12.9,100,-0.1,1.4
12.9,100,-0.9,1.6
12.9,100,-1.6,1.7
12.9,100,-2,1.8
12.9,100,-2.3,1.9
12.9,100,-2.3,1.9
12.9,100,-2.1,1.9
12.9,101,-1.8,2
12.9,101,-1.4,2.2
12.9,101,-0.9,2.4
12.9,101,-0.3,2.8
12.9,101,0.3,3.3
12.9,101,1.2,3.8
13,101,2.1,4.5
13,101,3.2,5.2
13,101,4.2,5.9
13,101,5.2,6.4
13,101,6.1,6.9
13,101,7,7.2
13,101,7.7,7.4
13,101,8.2,7.4
13,101,8.6,7.2
13,101,8.9,6.8
13,101,9,6.2
13,101,8.9,5.5
13,101,8.6,4.6
13,101,8.2,3.7
13,101,7.6,2.7
13,101,6.9,1.7
13,101,6.1,0.7
13,101,5.2,-0.1
13,101,4.2,-0.8
13,101,3.1,-1.3
13,101,1.8,-1.7
13,101,0.4,-1.9
13,101,-1,-2
13,101,-2.5,-2
13,101,-3.9,-2
13.1,101,-5.1,-1.9
13.1,102,-6,-1.7
13.1,102,-6.5,-1.4
13.1,102,-6.6,-0.9
13.1,102,-6.4,-0.3
13.1,102,-5.8,0.4
13.1,102,-5.1,1.1
13.1,102,-4.1,1.8
13.1,102,-3.2,2.4
13.1,102,-2.2,2.8
13.1,102,-1.2,3.2
13.1,102,-0.3,3.5
13.1,102,0.6,3.6
13.1,102,1.5,3.8
13.1,102,2.2,3.8
13.1,102,2.9,3.7
13.1,102,3.4,3.5
13.1,102,3.8,3.2
13.1,102,4.1,2.9
13.1,102,4.4,2.5
13.1,102,4.5,2.1
13.1,102,4.5,1.8
13.1,102,4.4,1.4
13.1,102,4.3,1.1
13.1,102,4.2,0.8
13.2,102,4,0.5
13.2,102,3.9,0.3
13.2,102,3.7,0.2
13.2,102,3.4,0.2
13.2,102,3.1,0.3
13.2,102,2.6,0.3
13.2,102,2,0.4
13.2,102,1.5,0.5
13.2,103,1,0.5
13.2,103,0.7,0.7
13.2,103,0.5,0.8
13.2,103,0.4,1.1
13.2,103,0.3,1.4
13.2,103,0.2,1.9
13.2,103,0,2.4
13.2,103,-0.3,2.9
13.2,103,-0.6,3.4
13.2,103,-0.9,3.9
13.2,103,-1.1,4.3
13.2,103,-1.4,4.6
13.2,103,-1.5,4.8
13.2,103,-1.6,4.9
13.2,103,-1.6,4.9
13.2,103,-1.7,4.8
13.2,103,-1.7,4.5
13.3,103,-1.8,4.2
13.3,103,-1.8,3.8
13.3,103,-1.8,3.4
13.3,103,-1.8,3
13.3,103,-1.9,2.6
13.3,103,-2,2.1
13.3,103,-2.1,1.6
13.3,103,-2.2,1
13.3,103,-2.4,0.5
13.3,103,-2.5,-0.1
13.3,103,-2.6,-0.7
13.3,103,-2.6,-1.2
13.3,103,-2.6,-1.7
13.3,103,-2.6,-2.3
13.3,103,-2.7,-2.8
13.3,104,-2.7,-3.3
13.3,104,-2.6,-3.7
13.3,104,-2.6,-4.1
13.3,104,-2.5,-4.4
13.3,104,-2.5,-4.7
13.3,104,-2.4,-4.8
13.3,104,-2.4,-4.9
13.3,104,-2.4,-4.9
13.3,104,-2.4,-4.9
13.3,104,-2.5,-4.7
13.4,104,-2.6,-4.6
13.4,104,-2.9,-4.4
13.4,104,-3.2,-4.2
13.4,104,-3.6,-3.9
13.4,104,-4.1,-3.4
13.4,104,-4.5,-2.8
13.4,104,-4.8,-2.2
13.4,104,-5.1,-1.6
13.4,104,-5.2,-1
13.4,104,-5.2,-0.5
13.4,104,-5.1,-0.2
13.4,104,-4.8,0.1
13.4,104,-4.3,0.4
13.4,104,-3.8,0.6
13.4,104,-3.1,0.6
13.4,104,-2.4,0.6
13.4,104,-1.6,0.6
13.4,104,-0.8,0.5
13.4,104,0,0.4
13.4,104,0.8,0.3
13.4,104,1.6,0.2
13.4,104,2.2,0.1
13.4,105,2.7,0
13.4,105,3.2,0
13.4,105,3.5,0
13.5,105,3.7,0
13.5,105,3.8,0.1
13.5,105,3.9,0.1
13.5,105,4,0.1
13.5,105,4,0.1
13.5,105,3.9,0.1
13.5,105,3.7,0
13.5,105,3.4,-0.1
13.5,105,3.1,-0.1
13.5,105,2.7,0
13.5,105,2.4,0.1
13.5,105,2.1,0.3
13.5,105,1.9,0.5
13.5,105,1.8,0.7
13.5,105,1.7,0.9
13.5,105,1.7,1
13.5,105,1.6,1.2
13.5,105,1.4,1.4
13.5,105,1.2,1.7
13.5,105,0.9,2
13.5,105,0.6,2.5
13.5,105,0.4,2.9
13.5,105,0.1,3.4
13.5,105,-0.2,3.8
13.5,105,-0.4,4.1
13.6,105,-0.7,4.3
13.6,105,-1,4.4
13.6,105,-1.3,4.4
13.6,105,-1.7,4.2
13.6,106,-2,4
13.6,106,-2.4,3.6
13.6,106,-2.6,3.1
13.6,106,-2.8,2.6
13.6,106,-2.8,1.9
13.6,106,-2.7,1.2
13.6,106,-2.6,0.4
13.6,106,-2.4,-0.5
13.6,106,-2.2,-1.4
13.6,106,-1.9,-2.3
13.6,106,-1.7,-3.2
13.6,106,-1.5,-4.1
13.6,106,-1.2,-4.8
13.6,106,-0.9,-5.4
13.6,106,-0.5,-5.7
13.6,106,-0.1,-5.9
13.6,106,0.3,-5.8
13.6,106,0.7,-5.5
13.6,106,1.1,-5
13.6,106,1.5,-4.5
13.6,106,1.9,-3.9
13.7,106,2.2,-3.2
13.7,106,2.4,-2.6
13.7,106,2.6,-2
13.7,106,2.7,-1.5
13.7,106,2.9,-0.9
13.7,106,3.1,-0.4
13.7,106,3.4,0.2
13.7,106,3.8,0.7
13.7,106,4.2,1.2
13.7,106,4.5,1.7
13.7,106,4.9,2.1
13.7,107,5.1,2.4
13.7,107,5.2,2.7
13.7,107,5.2,2.9
13.7,107,5.1,2.9
13.7,107,4.8,2.8
13.7,107,4.3,2.7
13.7,107,3.7,2.3
13.7,107,3.1,1.9
13.7,107,2.4,1.5
13.7,107,1.7,0.9
13.7,107,1,0.3
13.7,107,0.3,-0.2
13.7,107,-0.3,-0.8
13.7,107,-0.9,-1.2
13.8,107,-1.3,-1.7
13.8,107,-1.7,-2
13.8,107,-2,-2.4
13.8,107,-2.2,-2.8
13.8,107,-2.4,-3.2
13.8,107,-2.6,-3.6
13.8,107,-2.7,-3.9
13.8,107,-2.8,-4.2
13.8,107,-2.9,-4.4
13.8,107,-2.9,-4.5
13.8,107,-2.9,-4.5
13.8,107,-3,-4.3
13.8,107,-3.1,-4
13.8,107,-3.3,-3.6
13.8,107,-3.5,-3.1
13.8,107,-3.8,-2.5
13.8,107,-4.2,-1.8
13.8,107,-4.7,-1.2
13.8,108,-5.2,-0.6
13.8,108,-5.6,0
13.8,108,-5.9,0.4
13.8,108,-6.2,0.8
13.8,108,-6.2,1
13.8,108,-6.1,1.2
13.8,108,-5.8,1.3
13.9,108,-5.4,1.2
13.9,108,-4.9,1.1
13.9,108,-4.3,0.9
13.9,108,-3.6,0.8
13.9,108,-2.9,0.6
13.9,108,-2.1,0.5
13.9,108,-1.3,0.4
13.9,108,-0.5,0.3
13.9,108,0.3,0.3
13.9,108,1,0.4
13.9,108,1.6,0.5
13.9,108,2.1,0.7
13.9,108,2.5,1
13.9,108,2.9,1.3
13.9,108,3.1,1.6
13.9,108,3.3,1.9
13.9,108,3.4,2.1
13.9,108,3.3,2.3
13.9,108,3.1,2.5
13.9,108,2.9,2.6
13.9,108,2.8,2.8
13.9,108,2.7,3
13.9,108,2.6,3.1
13.9,108,2.4,3.3
13.9,108,2.2,3.4
14,109,1.9,3.3
14,109,1.5,3.2
14,109,0.9,2.8
14,109,0.1,2.3
14,109,-0.8,1.6
14,109,-1.7,0.8
14,109,-2.6,-0.2
14,109,-3.3,-1.3
14,109,-3.7,-2.4
14,109,-4,-3.7
14,109,-4.1,-4.9
14,109,-4,-6
14,109,-3.8,-7.1
14,109,-3.5,-8
14,109,-3,-8.7
14,109,-2.4,-9.2
14,109,-1.7,-9.3
14,109,-0.8,-9.2
14,109,0.1,-8.8
14,109,1.1,-8
14,109,2.1,-7
14,109,2.9,-5.8
14,109,3.7,-4.4
14,109,4.4,-2.7
14,109,5.1,-1
14.1,109,5.6,0.7
14.1,109,6.1,2.3
14.1,109,6.4,3.8
14.1,109,6.6,5.2
14.1,109,6.6,6.2
14.1,109,6.4,7
14.1,109,6,7.4
14.1,110,5.4,7.6
14.1,110,4.8,7.4
14.1,110,4.1,7
14.1,110,3.5,6.4
14.1,110,2.9,5.7
14.1,110,2.4,4.9
14.1,110,1.8,4.2
14.1,110,1.3,3.4
14.1,110,0.8,2.7
14.1,110,0.3,1.9
14.1,110,-0.1,1.1
14.1,110,-0.5,0.5
14.1,110,-0.8,-0.1
14.1,110,-1,-0.4
14.1,110,-1.2,-0.6
14.1,110,-1.4,-0.7
14.1,110,-1.6,-0.6
14.1,110,-1.9,-0.5
14.2,110,-2.2,-0.4
14.2,110,-2.5,-0.3
14.2,110,-2.8,-0.3
14.2,110,-2.9,-0.2
14.2,110,-2.8,-0.2
14.2,110,-2.5,-0.3
14.2,110,-2.1,-0.4
14.2,110,-1.6,-0.5
14.2,110,-1.1,-0.7
14.2,110,-0.5,-0.9
14.2,110,0.1,-1.1
14.2,110,0.6,-1.2
14.2,110,1.2,-1.3
14.2,110,1.7,-1.4
14.2,111,2.1,-1.4
14.2,111,2.3,-1.4
14.2,111,2.5,-1.3
14.2,111,2.5,-1.1
14.2,111,2.4,-0.9
14.2,111,2.2,-0.7
14.2,111,1.8,-0.4
14.2,111,1.5,-0.1
14.2,111,1.1,0.4
14.2,111,0.7,0.9
14.2,111,0.3,1.5
14.3,111,0,2.2
14.3,111,-0.3,2.9
14.3,111,-0.6,3.6
14.3,111,-0.9,4.2
14.3,111,-1.1,4.7
14.3,111,-1.4,5.1
14.3,111,-1.6,5.4
14.3,111,-1.7,5.6
14.3,111,-1.7,5.8
14.3,111,-1.6,5.8
14.3,111,-1.4,5.7
14.3,111,-1.1,5.4
14.3,111,-0.7,4.9
14.3,111,-0.3,4.3
14.3,111,0.1,3.6
14.3,111,0.5,2.9
14.3,111,0.9,2.1
14.3,111,1.4,1.4
14.3,111,1.9,0.8
14.3,111,2.5,0.3
14.3,111,3.2,-0.1
14.3,112,4,-0.4
14.3,112,4.7,-0.7
14.3,112,5.4,-1
14.3,112,5.9,-1.2
14.4,112,6.4,-1.4
14.4,112,6.6,-1.6
14.4,112,6.6,-1.7
14.4,112,6.4,-1.8
14.4,112,6,-1.8
14.4,112,5.5,-1.8
14.4,112,5,-1.8
14.4,112,4.4,-1.7
14.4,112,3.8,-1.5
14.4,112,3.2,-1.3
14.4,112,2.5,-1.1
14.4,112,1.9,-0.7
14.4,112,1.2,-0.3
14.4,112,0.7,0.3
14.4,112,0.2,1
14.4,112,-0.1,1.7
14.4,112,-0.4,2.4
14.4,112,-0.7,3
14.4,112,-1,3.5
14.4,112,-1.3,3.9
14.4,112,-1.7,4.1
14.4,112,-2,4.2
14.4,112,-2.4,4.1
14.4,112,-2.7,4
14.4,112,-3,3.8
14.5,112,-3.3,3.5
14.5,112,-3.6,3
14.5,112,-3.9,2.3
14.5,113,-4,1.5
14.5,113,-4.1,0.6
14.5,113,-4.1,-0.4
14.5,113,-4,-1.4
14.5,113,-3.9,-2.3
14.5,113,-3.6,-3.2
14.5,113,-3.2,-3.9
14.5,113,-2.8,-4.4
14.5,113,-2.4,-4.8
14.5,113,-2,-4.9
14.5,113,-1.6,-4.9
14.5,113,-1.3,-4.7
14.5,113,-1,-4.4
14.5,113,-0.7,-3.9
14.5,113,-0.4,-3.3
14.5,113,-0.2,-2.6
14.5,113,0.1,-1.8
14.5,113,0.4,-0.9
14.5,113,0.6,-0.2
14.5,113,0.9,0.5
14.5,113,1.1,1.2
14.5,113,1.3,1.8
14.6,113,1.3,2.3
14.6,113,1.2,2.7
14.6,113,0.9,2.8
14.6,113,0.4,2.8
14.6,113,-0.3,2.6
14.6,113,-1.1,2.3
14.6,113,-2,1.8
14.6,113,-3,1.3
14.6,113,-4,0.8
14.6,113,-4.9,0.2
14.6,114,-5.8,-0.4
14.6,114,-6.6,-0.9
14.6,114,-7.3,-1.3
14.6,114,-7.8,-1.7
14.6,114,-8.1,-2
14.6,114,-8.3,-2.2
14.6,114,-8.4,-2.4
14.6,114,-8.4,-2.6
14.6,114,-8.4,-2.8
14.6,114,-8.3,-3
14.6,114,-8.2,-3.3
14.6,114,-8.1,-3.6
14.6,114,-7.8,-3.9
14.6,114,-7.5,-4.2
14.6,114,-7.1,-4.5
14.7,114,-6.5,-4.8
14.7,114,-5.8,-4.9
14.7,114,-4.9,-5
14.7,114,-4,-5
14.7,114,-3,-4.8
14.7,114,-1.9,-4.4
14.7,114,-0.9,-3.9
14.7,114,0.1,-3.3
14.7,114,1,-2.6
14.7,114,1.8,-1.9
14.7,114,2.5,-1.1
14.7,114,3,-0.5
14.7,114,3.3,0.2
14.7,114,3.5,0.7
14.7,114,3.6,1
14.7,114,3.4,1.3
14.7,114,3,1.4
14.7,115,2.5,1.4
14.7,115,1.9,1.3
14.7,115,1.3,1
14.7,115,0.6,0.6
14.7,115,-0.1,0
14.7,115,-0.7,-0.6
14.7,115,-1.1,-1.2
14.7,115,-1.5,-1.8
14.8,115,-1.7,-2.3
14.8,115,-1.7,-2.8
14.8,115,-1.5,-3.2
14.8,115,-1.2,-3.6
14.8,115,-0.8,-4
14.8,115,-0.5,-4.4
14.8,115,-0.3,-4.7
14.8,115,-0.2,-5
14.8,115,-0.1,-5.2
14.8,115,-0.1,-5.2
14.8,115,0,-5.1
14.8,115,0.2,-4.9
14.8,115,0.4,-4.6
14.8,115,0.6,-4.3
14.8,115,0.8,-4
14.8,115,1.1,-3.7
14.8,115,1.4,-3.4
14.8,115,1.9,-3
14.8,115,2.3,-2.6
14.8,115,2.9,-2.2
14.8,115,3.5,-1.6
14.8,115,4.1,-1.1
14.8,115,4.8,-0.6
14.8,115,5.4,-0.3
14.8,116,6,0
14.9,116,6.5,0.2
14.9,116,6.8,0.3
14.9,116,6.8,0.3
14.9,116,6.6,0.3
14.9,116,6.2,0.2
14.9,116,5.3,0
14.9,116,4.2,-0.1
14.9,116,2.8,-0.3
14.9,116,1.4,-0.4
14.9,116,0.1,-0.4
14.9,116,-1.1,-0.2
14.9,116,-2,0.1
14.9,116,-2.5,0.6
14.9,116,-2.7,1.1
14.9,116,-2.6,1.8
14.9,116,-2.2,2.4
14.9,116,-1.5,2.9
14.9,116,-0.8,3.3
14.9,116,0,3.5
14.9,116,0.8,3.5
14.9,116,1.6,3.4
14.9,116,2.3,3.1
14.9,116,3,2.8
14.9,116,3.6,2.4
14.9,116,4,2
15,116,4.2,1.5
15,116,4.1,1
15,116,3.8,0.6
15,116,3.2,0.2
15,116,2.6,-0.1
15,116,1.8,-0.3
15,117,0.9,-0.5
15,117,0.1,-0.7
15,117,-0.8,-0.8
15,117,-1.5,-1
15,117,-2.2,-1.2
15,117,-2.7,-1.3
15,117,-3.1,-1.3
15,117,-3.3,-1.1
15,117,-3.2,-0.8
15,117,-3,-0.3
15,117,-2.7,0.3
15,117,-2.3,1.1
15,117,-1.9,1.8
15,117,-1.4,2.6
15,117,-1,3.3
15,117,-0.7,4
15,117,-0.4,4.5
15,117,-0.1,5
15,117,0.1,5.3
15.1,117,0.3,5.4
15.1,117,0.4,5.5
15.1,117,0.6,5.5
15.1,117,0.7,5.5
15.1,117,0.7,5.3
15.1,117,0.6,5.2
15.1,117,0.5,4.9
15.1,117,0.4,4.6
15.1,117,0.3,4.2
15.1,117,0.2,3.8
15.1,117,0.2,3.4
15.1,117,0.2,2.8
15.1,117,0.2,2.3
15.1,118,0.1,1.6
15.1,118,0,1
15.1,118,-0.1,0.4
15.1,118,-0.2,-0.1
15.1,118,-0.3,-0.5
15.1,118,-0.4,-0.8
15.1,118,-0.4,-1
15.1,118,-0.3,-1.2
15.1,118,-0.2,-1.3
15.1,118,0,-1.3
15.1,118,0.2,-1.3
15.1,118,0.4,-1.2
15.2,118,0.6,-1
15.2,118,0.9,-0.8
15.2,118,1.2,-0.5
15.2,118,1.5,-0.1
15.2,118,1.9,0.2
15.2,118,2.2,0.6
15.2,118,2.6,1
15.2,118,2.9,1.3
15.2,118,3.1,1.5
15.2,118,3.3,1.6
15.2,118,3.3,1.7
15.2,118,3.1,1.5
15.2,118,2.8,1.3
15.2,118,2.4,1.1
15.2,118,2,0.7
15.2,118,1.5,0.4
15.2,118,1,0.1
15.2,118,0.5,-0.2
15.2,118,0.1,-0.5
15.2,118,-0.2,-0.7
15.2,119,-0.5,-0.8
15.2,119,-0.6,-0.8
15.2,119,-0.6,-0.7
15.2,119,-0.6,-0.6
15.2,119,-0.4,-0.4
15.3,119,-0.2,-0.1
15.3,119,0.1,0.2
15.3,119,0.4,0.5
15.3,119,0.7,1
15.3,119,1,1.5
15.3,119,1.3,2
15.3,119,1.6,2.5
15.3,119,1.8,2.9
15.3,119,1.9,3.2
15.3,119,2,3.4
15.3,119,1.9,3.5
15.3,119,1.8,3.5
15.3,119,1.5,3.4
15.3,119,1.2,3.3
15.3,119,0.8,3.1
15.3,119,0.4,2.8
15.3,119,-0.1,2.4
15.3,119,-0.6,1.9
15.3,119,-1.1,1.4
15.3,119,-1.5,0.9
15.3,119,-1.7,0.3
15.3,119,-1.8,-0.2
15.3,119,-1.7,-0.7
15.3,119,-1.4,-1.2
15.3,119,-1.1,-1.7
15.4,119,-0.8,-2.1
15.4,119,-0.5,-2.4
15.4,120,-0.1,-2.7
15.4,120,0.2,-2.9
15.4,120,0.5,-3.1
15.4,120,0.8,-3.1
15.4,120,1,-3.2
15.4,120,1.1,-3.1
15.4,120,1.2,-2.9
15.4,120,1.1,-2.6
15.4,120,1.1,-2.2
15.4,120,0.9,-1.6
15.4,120,0.7,-1.1
15.4,120,0.4,-0.5
15.4,120,0,0
15.4,120,-0.4,0.4
15.4,120,-0.9,0.7
15.4,120,-1.2,1
15.4,120,-1.5,1.3
15.4,120,-1.7,1.5
15.4,120,-1.7,1.6
15.4,120,-1.5,1.5
15.4,120,-1.3,1.5
15.4,120,-1,1.3
15.4,120,-0.6,1.1
15.5,120,-0.2,0.9
15.5,120,0.2,0.7
15.5,120,0.6,0.4
15.5,120,1,0.1
15.5,120,1.4,-0.1
15.5,120,1.7,-0.2
15.5,120,1.9,-0.3
15.5,120,2,-0.3
15.5,120,1.9,-0.1
15.5,121,1.6,0
15.5,121,1.1,0.1
15.5,121,0.5,0.2
15.5,121,-0.3,0.2
15.5,121,-1,0.2
15.5,121,-1.7,0.3
15.5,121,-2.4,0.4
15.5,121,-2.9,0.5
15.5,121,-3.4,0.5
15.5,121,-3.8,0.5
15.5,121,-4.2,0.4
15.5,121,-4.6,0.2
15.5,121,-5,-0.2
15.5,121,-5.3,-0.6
15.5,121,-5.5,-1
15.5,121,-5.5,-1.3
15.6,121,-5.5,-1.5
15.6,121,-5.4,-1.7
15.6,121,-5.2,-1.7
15.6,121,-5,-1.6
15.6,121,-4.7,-1.5
15.6,121,-4.4,-1.4
15.6,121,-4,-1.2
15.6,121,-3.6,-1
15.6,121,-3.3,-1
15.6,121,-3,-1
15.6,121,-2.7,-1.1
15.6,121,-2.6,-1.3
15.6,121,-2.5,-1.5
15.6,121,-2.3,-1.8
15.6,121,-2.2,-2.2
15.6,121,-2.1,-2.5
15.6,122,-2,-2.9
15.6,122,-1.8,-3.3
15.6,122,-1.7,-3.6
15.6,122,-1.5,-3.9
15.6,122,-1.4,-4.2
15.6,122,-1.3,-4.4
15.6,122,-1.3,-4.6
15.6,122,-1.3,-4.8
15.6,122,-1.4,-5.1
15.7,122,-1.6,-5.4
15.7,122,-1.9,-5.6
15.7,122,-2.2,-5.8
15.7,122,-2.4,-5.8
15.7,122,-2.6,-5.6
15.7,122,-2.6,-5.2
15.7,122,-2.5,-4.6
15.7,122,-2.2,-3.9
15.7,122,-1.8,-3.1
15.7,122,-1.3,-2.3
15.7,122,-0.6,-1.5
15.7,122,0.1,-0.7
15.7,122,0.9,0.1
15.7,122,1.8,0.9
15.7,122,2.8,1.6
15.7,122,3.7,2.1
15.7,122,4.7,2.5
15.7,122,5.6,2.7
15.7,122,6.4,2.6
15.7,122,7,2.5
15.7,122,7.5,2.2
15.7,122,7.7,1.8
15.7,122,7.6,1.4
15.7,123,7.3,1
15.7,123,6.8,0.5
15.8,123,6,0.2
15.8,123,5,-0.1
15.8,123,3.8,-0.4
15.8,123,2.5,-0.6
15.8,123,1,-0.7
15.8,123,-0.4,-0.8
15.8,123,-1.8,-0.9
15.8,123,-2.9,-0.9
15.8,123,-3.9,-1
15.8,123,-4.5,-1.1
15.8,123,-4.8,-1.1
15.8,123,-4.8,-1.2
15.8,123,-4.5,-1.2
15.8,123,-3.8,-1.1
15.8,123,-3,-1
15.8,123,-2,-0.9
15.8,123,-0.9,-0.8
15.8,123,0.3,-0.7
15.8,123,1.5,-0.5
15.8,123,2.7,-0.4
15.8,123,3.9,-0.2
15.8,123,5,0
15.8,123,6.1,0.2
15.8,123,7.2,0.4
15.8,123,8,0.6
15.9,123,8.7,0.6
15.9,123,9.2,0.7
15.9,123,9.5,0.8
15.9,123,9.7,0.9
15.9,123,9.8,1.1
15.9,124,9.7,1.4
15.9,124,9.5,1.8
15.9,124,9.1,2.2
15.9,124,8.7,2.6
15.9,124,8.1,3
15.9,124,7.4,3.3
15.9,124,6.7,3.6
15.9,124,5.9,3.8
15.9,124,5,3.9
15.9,124,4.2,4
15.9,124,3.5,4.1
15.9,124,2.8,4.2
15.9,124,2.2,4.3
15.9,124,1.6,4.4
15.9,124,1.1,4.5
15.9,124,0.7,4.6
15.9,124,0.4,4.7
15.9,124,0.2,4.7
15.9,124,0,4.7
15.9,124,-0.1,4.6
16,124,-0.1,4.5
16,124,-0.1,4.4
16,124,-0.1,4.2
16,124,-0.1,4
16,124,-0.1,3.8
16,124,-0.1,3.5
16,124,-0.2,3.2
16,124,-0.4,2.9
16,124,-0.5,2.5
16,124,-0.6,2.1
16,124,-0.7,1.7
16,124,-0.7,1.2
16,125,-0.8,0.8
16,125,-1,0.3
16,125,-1.1,0
16,125,-1.2,-0.3
16,125,-1.2,-0.6
16,125,-1.3,-0.7
16,125,-1.4,-0.7
16,125,-1.5,-0.7
16,125,-1.7,-0.6
16,125,-1.9,-0.4
16,125,-2.2,-0.2
16,125,-2.3,0
16,125,-2.4,0.2
16.1,125,-2.3,0.3
16.1,125,-2,0.5
16.1,125,-1.5,0.7
16.1,125,-0.9,0.9
16.1,125,-0.1,1.2
16.1,125,0.8,1.4
16.1,125,1.6,1.5
16.1,125,2.2,1.4
16.1,125,2.6,1.3
16.1,125,2.8,1.1
16.1,125,2.7,0.8
16.1,125,2.5,0.6
16.1,125,2.2,0.4
16.1,125,1.8,0.3
16.1,125,1.4,0.2
16.1,125,1.1,0.1
16.1,125,0.9,0.2
16.1,125,0.7,0.3
16.1,125,0.6,0.4
16.1,126,0.4,0.6
16.1,126,0.3,0.8
16.1,126,0.1,1.1
16.1,126,-0.1,1.3
16.1,126,-0.4,1.5
16.1,126,-0.8,1.6
16.2,126,-1.3,1.5
16.2,126,-1.9,1.4
16.2,126,-2.5,1.2
16.2,126,-3.1,0.9
16.2,126,-3.7,0.5
16.2,126,-4.4,0.1
16.2,126,-5.1,-0.3
16.2,126,-5.7,-0.6
16.2,126,-6.4,-1
16.2,126,-7,-1.2
16.2,126,-7.6,-1.4
16.2,126,-8.1,-1.5
16.2,126,-8.6,-1.5
16.2,126,-8.9,-1.5
16.2,126,-9.2,-1.4
16.2,126,-9.2,-1.3
16.2,126,-9.1,-1.1
16.2,126,-8.9,-1
16.2,126,-8.5,-0.9
16.2,126,-8.1,-0.9
16.2,126,-7.6,-0.9
16.2,126,-7.1,-0.9
16.2,126,-6.5,-0.9
16.2,126,-5.8,-0.8
16.2,126,-5.1,-0.8
16.3,126,-4.3,-0.8
16.3,127,-3.5,-0.9
16.3,127,-2.7,-0.9
16.3,127,-1.7,-0.9
16.3,127,-0.6,-0.8
16.3,127,0.5,-0.7
16.3,127,1.6,-0.6
16.3,127,2.7,-0.5
16.3,127,3.5,-0.4
16.3,127,4.2,-0.3
16.3,127,4.6,-0.4
16.3,127,4.8,-0.7
16.3,127,4.8,-0.9
16.3,127,4.7,-1.2
16.3,127,4.4,-1.6
16.3,127,3.9,-2
16.3,127,3.3,-2.3
16.3,127,2.6,-2.7
16.3,127,1.8,-2.9
16.3,127,1,-3
16.3,127,0.2,-3.1
16.3,127,-0.4,-3
16.3,127,-1,-2.9
16.3,127,-1.5,-2.6
16.3,127,-1.9,-2.2
16.4,127,-2.2,-1.8
16.4,127,-2.4,-1.4
16.4,127,-2.6,-0.9
16.4,127,-2.6,-0.5
16.4,127,-2.7,-0.1
16.4,127,-2.7,0.1
16.4,127,-2.7,0.3
16.4,127,-2.6,0.3
16.4,128,-2.5,0.3
16.4,128,-2.3,0.2
16.4,128,-2,0.1
16.4,128,-1.7,-0.1
16.4,128,-1.3,-0.3
16.4,128,-0.9,-0.6
16.4,128,-0.5,-0.8
16.4,128,0.1,-1
16.4,128,0.7,-1.1
16.4,128,1.4,-1.2
16.4,128,2,-1.2
16.4,128,2.6,-1.2
16.4,128,3.1,-1.1
16.4,128,3.5,-1
16.4,128,3.8,-0.8
16.4,128,4,-0.5
16.4,128,4.2,-0.2
16.5,128,4.2,0.2
16.5,128,4.2,0.6
16.5,128,4.1,1
16.5,128,4,1.4
16.5,128,3.8,1.7
16.5,128,3.6,1.9
16.5,128,3.4,2
16.5,128,3,2
16.5,128,2.5,2
16.5,128,2,1.8
16.5,128,1.5,1.7
16.5,128,1,1.5
16.5,128,0.5,1.2
16.5,128,0.2,0.7
16.5,128,-0.1,0.2
16.5,129,-0.4,-0.3
16.5,129,-0.6,-0.9
16.5,129,-1,-1.4
16.5,129,-1.4,-2
16.5,129,-1.9,-2.5
16.5,129,-2.5,-2.9
16.5,129,-3.2,-3.2
16.5,129,-3.8,-3.5
16.5,129,-4.3,-3.6
16.5,129,-4.6,-3.5
16.6,129,-4.6,-3.2
16.6,129,-4.4,-2.9
16.6,129,-3.9,-2.4
16.6,129,-3.4,-1.9
16.6,129,-2.8,-1.3
16.6,129,-2.1,-0.9
16.6,129,-1.5,-0.5
16.6,129,-0.8,-0.2
16.6,129,-0.2,0.1
16.6,129,0.4,0.3
16.6,129,1.1,0.5
16.6,129,1.6,0.6
16.6,129,2.1,0.7
16.6,129,2.6,0.8
16.6,129,3,0.8
16.6,129,3.3,0.7
16.6,129,3.3,0.7
16.6,129,3.2,0.5
16.6,129,2.8,0.3
16.6,129,2.1,0.1
16.6,129,1.1,-0.2
16.6,129,0,-0.6
16.6,130,-1.3,-1.1
16.6,130,-2.7,-1.6
16.6,130,-4,-2.2
16.7,130,-5.1,-2.7
16.7,130,-6,-3.1
16.7,130,-6.6,-3.5
16.7,130,-6.9,-3.7
16.7,130,-7,-3.8
16.7,130,-6.9,-3.7
16.7,130,-6.5,-3.5
16.7,130,-5.9,-3.2
16.7,130,-5.3,-2.8
16.7,130,-4.4,-2.4
16.7,130,-3.5,-1.9
16.7,130,-2.3,-1.3
16.7,130,-1.2,-0.7
16.7,130,0.1,-0.1
16.7,130,1.3,0.5
16.7,130,2.4,1
16.7,130,3.3,1.5
16.7,130,4.1,1.9
16.7,130,4.7,2.3
16.7,130,5.1,2.5
16.7,130,5.2,2.7
16.7,130,5.1,2.9
16.7,130,4.9,3
16.7,130,4.6,3
16.7,130,4.2,3.1
16.8,130,3.8,3
16.8,130,3.3,2.8
16.8,130,2.9,2.5
16.8,130,2.6,2.2
16.8,131,2.3,1.7
16.8,131,2.1,1.1
16.8,131,1.9,0.5
16.8,131,1.8,-0.1
16.8,131,1.7,-0.8
16.8,131,1.7,-1.5
16.8,131,1.8,-2.2
16.8,131,2.1,-2.7
16.8,131,2.4,-3.1
16.8,131,2.9,-3.3
16.8,131,3.5,-3.4
16.8,131,4,-3.3
16.8,131,4.4,-3.1
16.8,131,4.8,-2.8
16.8,131,5.1,-2.4
16.8,131,5.3,-1.9
16.8,131,5.4,-1.4
16.8,131,5.5,-0.8
16.8,131,5.5,-0.1
16.8,131,5.5,0.7
16.8,131,5.5,1.5
16.9,131,5.5,2.3
16.9,131,5.3,3.1
16.9,131,5,3.7
16.9,131,4.5,4.1
16.9,131,4,4.3
16.9,131,3.3,4.3
16.9,131,2.5,4.1
16.9,131,1.8,3.8
16.9,131,1,3.3
16.9,131,0.2,2.7
16.9,131,-0.5,2
16.9,132,-1.3,1.3
16.9,132,-2,0.7
16.9,132,-2.7,0.1
16.9,132,-3.3,-0.4
16.9,132,-3.9,-0.8
16.9,132,-4.5,-1.1
16.9,132,-5,-1.4
16.9,132,-5.4,-1.7
16.9,132,-5.8,-1.9
16.9,132,-6,-2
16.9,132,-6.1,-2
16.9,132,-6.1,-1.9
16.9,132,-6,-1.8
16.9,132,-5.8,-1.7
17,132,-5.5,-1.5
17,132,-5,-1.3
17,132,-4.4,-1.1
17,132,-3.7,-0.9
17,132,-3,-0.8
17,132,-2.2,-0.7
17,132,-1.4,-0.6
17,132,-0.7,-0.4
17,132,-0.2,-0.1
17,132,0.2,0.2
17,132,0.5,0.5
17,132,0.7,0.8
17,132,0.9,1
17,132,1,1.2
17,132,1,1.3
17,132,1,1.3
17,132,0.9,1.3
17,132,0.8,1.4
17,133,0.6,1.4
17,133,0.3,1.5
17,133,-0.1,1.6
17,133,-0.6,1.7
17,133,-1,1.7
17,133,-1.5,1.8
17,133,-1.9,1.8
17.1,133,-2.3,1.8
17.1,133,-2.7,1.7
17.1,133,-3.2,1.4
17.1,133,-3.8,1.1
17.1,133,-4.4,0.7
17.1,133,-5,0.2
17.1,133,-5.5,-0.3
17.1,133,-6,-0.7
17.1,133,-6.3,-1
17.1,133,-6.4,-1.2
17.1,133,-6.4,-1.4
17.1,133,-6.1,-1.6
17.1,133,-5.7,-1.7
17.1,133,-5.2,-1.9
17.1,133,-4.6,-2.1
17.1,133,-3.9,-2.2
17.1,133,-3.1,-2.2
17.1,133,-2.3,-2.1
17.1,133,-1.3,-1.8
17.1,133,-0.4,-1.4
17.1,133,0.4,-0.9
17.1,133,1.1,-0.5
17.1,133,1.6,-0.1
17.1,133,2,0.2
17.1,133,2.1,0.4
17.2,134,2.1,0.4
17.2,134,2,0.4
17.2,134,1.9,0.4
17.2,134,1.8,0.3
17.2,134,1.7,0.2
17.2,134,1.5,0.2
17.2,134,1.4,0.1
17.2,134,1.4,0.1
17.2,134,1.3,0.1
17.2,134,1.3,0.1
17.2,134,1.3,0
17.2,134,1.3,-0.1
17.2,134,1.4,-0.3
17.2,134,1.5,-0.4
17.2,134,1.5,-0.6
17.2,134,1.4,-0.7
17.2,134,1.3,-0.7
17.2,134,1.1,-0.6
17.2,134,0.9,-0.4
17.2,134,0.6,-0.3
17.2,134,0.3,-0.1
17.2,134,-0.1,0.1
17.2,134,-0.5,0.2
17.2,134,-0.8,0.5
17.2,134,-1,0.7
17.3,134,-1.2,1
17.3,134,-1.2,1.3
17.3,134,-1.1,1.6
17.3,134,-0.9,1.9
17.3,134,-0.6,2.3
17.3,134,-0.3,2.5
17.3,134,0.1,2.8
17.3,135,0.5,3
17.3,135,0.9,3.2
17.3,135,1.4,3.3
17.3,135,1.9,3.4
17.3,135,2.3,3.4
17.3,135,2.7,3.3
17.3,135,3.1,3.2
17.3,135,3.3,3.1
17.3,135,3.5,3.1
17.3,135,3.6,3
17.3,135,3.7,3
17.3,135,3.7,2.9
17.3,135,3.7,2.9
17.3,135,3.6,2.8
17.3,135,3.6,2.7
17.3,135,3.5,2.6
17.3,135,3.5,2.5
17.3,135,3.4,2.4
17.4,135,3.3,2.3
17.4,135,3.1,2.1
17.4,135,3,2
17.4,135,2.9,1.8
17.4,135,2.9,1.7
17.4,135,2.8,1.6
17.4,135,2.6,1.4
17.4,135,2.4,1.3
17.4,135,2.1,1.1
17.4,135,1.7,0.9
17.4,135,1.4,0.7
17.4,135,1.1,0.6
17.4,135,1,0.6
17.4,135,0.9,0.7
17.4,136,0.9,0.8
17.4,136,0.8,0.9
17.4,136,0.7,1
17.4,136,0.6,1
17.4,136,0.5,1.1
17.4,136,0.3,1.2
17.4,136,0.2,1.2
17.4,136,0.1,1.3
17.4,136,0.1,1.4
17.4,136,0.2,1.4
17.4,136,0.3,1.5
17.5,136,0.5,1.6
17.5,136,0.8,1.6
17.5,136,1.1,1.6
17.5,136,1.5,1.6
17.5,136,2,1.6
17.5,136,2.5,1.5
17.5,136,2.9,1.2
17.5,136,3.1,0.9
17.5,136,3.2,0.4
17.5,136,3.1,-0.1
17.5,136,2.7,-0.8
17.5,136,2.1,-1.6
17.5,136,1.3,-2.4
17.5,136,0.4,-3.2
17.5,136,-0.4,-3.9
17.5,136,-1,-4.4
17.5,136,-1.5,-4.8
17.5,136,-1.8,-5.1
17.5,136,-1.8,-5.2
17.5,136,-1.7,-5.2
17.5,136,-1.3,-5.1
17.5,137,-0.9,-5
17.5,137,-0.4,-4.8
17.5,137,0,-4.6
17.5,137,0.4,-4.4
17.6,137,0.6,-4.2
17.6,137,0.8,-4.1
17.6,137,0.9,-3.9
17.6,137,1,-3.8
17.6,137,1,-3.6
17.6,137,1,-3.3
17.6,137,1,-3.1
17.6,137,0.9,-2.9
17.6,137,0.8,-2.6
17.6,137,0.7,-2.2
17.6,137,0.6,-1.7
17.6,137,0.5,-1.2
17.6,137,0.4,-0.6
17.6,137,0.3,-0.1
17.6,137,0.2,0.4
17.6,137,0,0.9
17.6,137,-0.2,1.2
17.6,137,-0.4,1.5
17.6,137,-0.6,1.6
17.6,137,-0.8,1.6
17.6,137,-1,1.6
17.6,137,-1.1,1.4
17.6,137,-1.3,1.2
17.6,137,-1.5,1
17.6,137,-1.7,0.8
17.7,137,-1.9,0.5
17.7,137,-2.2,0.3
17.7,137,-2.5,0
17.7,138,-2.8,-0.3
17.7,138,-3.1,-0.6
17.7,138,-3.5,-1
17.7,138,-3.8,-1.2
17.7,138,-4,-1.4
17.7,138,-4.2,-1.6
17.7,138,-4.2,-1.8
17.7,138,-4.1,-1.9
17.7,138,-3.8,-1.9
17.7,138,-3.3,-1.9
17.7,138,-2.7,-1.8
17.7,138,-2,-1.5
17.7,138,-1.3,-1.2
17.7,138,-0.5,-0.8
17.7,138,0.1,-0.5
17.7,138,0.7,-0.1
17.7,138,1.2,0.1
17.7,138,1.6,0.1
17.7,138,1.9,0.1
17.7,138,2.1,-0.1
17.7,138,2.1,-0.3
17.7,138,2.1,-0.5
17.8,138,1.9,-0.7
17.8,138,1.5,-0.9
17.8,138,1.2,-1.2
17.8,138,0.8,-1.5
17.8,138,0.4,-1.9
17.8,138,0,-2.3
17.8,138,-0.3,-2.8
17.8,138,-0.6,-3.2
17.8,138,-0.7,-3.5
17.8,138,-0.7,-3.7
17.8,139,-0.6,-3.7
17.8,139,-0.3,-3.6
17.8,139,-0.1,-3.5
17.8,139,0.1,-3.3
17.8,139,0.3,-3.1
17.8,139,0.4,-3
17.8,139,0.5,-2.9
17.8,139,0.6,-2.8
17.8,139,0.7,-2.6
17.8,139,0.8,-2.5
17.8,139,0.9,-2.4
17.8,139,1,-2.2
17.8,139,1.3,-2
17.8,139,1.6,-1.8
17.8,139,1.8,-1.6
17.9,139,2.1,-1.3
17.9,139,2.4,-1.1
17.9,139,2.6,-0.8
17.9,139,2.7,-0.6
17.9,139,2.8,-0.2
17.9,139,2.8,0.1
17.9,139,2.8,0.6
17.9,139,2.7,1
17.9,139,2.5,1.4
17.9,139,2.1,1.7
17.9,139,1.7,1.8
17.9,139,1.1,1.9
17.9,139,0.3,1.8
17.9,139,-0.5,1.5
17.9,139,-1.5,1.2
17.9,139,-2.5,0.9
17.9,139,-3.4,0.7
17.9,140,-4.3,0.5
17.9,140,-5.1,0.5
17.9,140,-5.7,0.6
17.9,140,-6,0.8
17.9,140,-6.2,1.1
17.9,140,-6.3,1.4
17.9,140,-6.3,1.8
17.9,140,-6.1,2.2
18,140,-5.9,2.6
18,140,-5.7,3.1
18,140,-5.5,3.5
18,140,-5.2,3.9
18,140,-4.9,4.2
18,140,-4.6,4.5
18,140,-4.1,4.6
18,140,-3.5,4.7
18,140,-2.9,4.7
18,140,-2.2,4.6
18,140,-1.5,4.3
18,140,-0.8,4
18,140,-0.2,3.7
18,140,0.3,3.4
18,140,0.9,3.1
18,140,1.4,2.8
18,140,1.8,2.6
18,140,2.2,2.4
18,140,2.4,2.2
18,140,2.4,1.9
18,140,2.3,1.7
18,140,2.1,1.5
18,140,1.7,1.3
18,140,1.3,1.2
18,141,0.8,1.1
18.1,141,0.3,1.1
18.1,141,-0.3,1.2
18.1,141,-0.8,1.3
18.1,141,-1.2,1.5
18.1,141,-1.6,1.7
18.1,141,-1.7,1.9
18.1,141,-1.8,2.1
18.1,141,-1.7,2.3
18.1,141,-1.4,2.4
18.1,141,-1,2.6
18.1,141,-0.6,2.6
18.1,141,-0.2,2.6
18.1,141,0.2,2.4
18.1,141,0.5,2.2
18.1,141,0.7,1.8
18.1,141,0.8,1.3
18.1,141,1,0.9
18.1,141,1.3,0.5
18.1,141,1.5,0.2
18.1,141,1.8,-0.1
18.1,141,2.1,-0.4
18.1,141,2.4,-0.7
18.1,141,2.6,-1
18.1,141,2.8,-1.3
18.1,141,3,-1.6
18.2,141,3.2,-1.8
18.2,141,3.5,-2
18.2,141,3.8,-2
18.2,141,4,-1.9
18.2,141,4.2,-1.7
18.2,141,4.4,-1.4
18.2,142,4.4,-1.1
18.2,142,4.3,-0.8
18.2,142,4.1,-0.5
18.2,142,3.8,-0.2
18.2,142,3.4,0
18.2,142,2.9,0.1
18.2,142,2.3,0.2
18.2,142,1.7,0.3
18.2,142,1.2,0.5
18.2,142,0.8,0.6
18.2,142,0.4,0.8
18.2,142,0,1
18.2,142,-0.4,1.1
18.2,142,-0.8,1.3
18.2,142,-1,1.5
18.2,142,-1.2,1.6
18.2,142,-1.4,1.8
18.2,142,-1.4,1.9
18.2,142,-1.4,2.1
18.3,142,-1.3,2.3
18.3,142,-1.2,2.5
18.3,142,-0.9,2.8
18.3,142,-0.6,3
18.3,142,-0.2,3.2
18.3,142,0.2,3.3
18.3,142,0.5,3.4
18.3,142,0.8,3.4
18.3,142,1,3.4
18.3,142,1.1,3.3
18.3,142,1.2,3.2
18.3,142,1.1,3.1
18.3,142,0.9,3
18.3,143,0.5,2.7
18.3,143,-0.1,2.4
18.3,143,-0.8,1.9
18.3,143,-1.5,1.4
18.3,143,-2,1
18.3,143,-2.3,0.6
18.3,143,-2.3,0.3
18.3,143,-2.2,0.1
18.3,143,-2,0
18.3,143,-1.8,-0.1
18.3,143,-1.5,-0.2
18.3,143,-1.2,-0.4
18.4,143,-0.9,-0.6
18.4,143,-0.5,-0.9
18.4,143,0,-1.2
18.4,143,0.5,-1.5
18.4,143,1,-1.8
18.4,143,1.4,-2.2
18.4,143,1.8,-2.5
18.4,143,2.1,-2.8
18.4,143,2.4,-3
18.4,143,2.5,-3.1
18.4,143,2.5,-3.1
18.4,143,2.3,-3
18.4,143,2,-2.9
18.4,143,1.6,-2.7
18.4,143,1.2,-2.5
18.4,143,0.7,-2.3
18.4,143,0.3,-2.2
18.4,143,0,-2
18.4,143,-0.2,-1.9
18.4,143,-0.4,-1.8
18.4,144,-0.5,-1.7
18.4,144,-0.5,-1.7
18.4,144,-0.6,-1.7
18.4,144,-0.5,-1.7
18.4,144,-0.4,-1.8
18.5,144,-0.3,-1.8
18.5,144,0,-1.8
18.5,144,0.3,-1.8
18.5,144,0.6,-1.8
18.5,144,0.9,-1.7
18.5,144,1.2,-1.7
18.5,144,1.4,-1.7
18.5,144,1.6,-1.6
18.5,144,1.7,-1.6
18.5,144,1.7,-1.5
18.5,144,1.8,-1.4
18.5,144,1.7,-1.3
18.5,144,1.7,-1.1
18.5,144,1.5,-1.1
18.5,144,1.4,-1
18.5,144,1.3,-0.9
18.5,144,1.2,-0.9
18.5,144,1.1,-0.9
18.5,144,1,-0.9
18.5,144,0.8,-0.9
18.5,144,0.6,-0.9
18.5,144,0.4,-0.8
18.5,144,0.2,-0.8
18.5,144,-0.1,-0.8
18.5,144,-0.3,-0.9
18.6,144,-0.5,-1.1
18.6,144,-0.7,-1.3
18.6,145,-1,-1.5
18.6,145,-1.3,-1.7
18.6,145,-1.5,-1.8
18.6,145,-1.6,-1.8
18.6,145,-1.6,-1.7
18.6,145,-1.5,-1.6
18.6,145,-1.4,-1.5
18.6,145,-1.2,-1.4
18.6,145,-1.1,-1.4
18.6,145,-1.1,-1.4
18.6,145,-1,-1.4
18.6,145,-1,-1.4
18.6,145,-0.9,-1.4
18.6,145,-0.8,-1.4
18.6,145,-0.7,-1.4
18.6,145,-0.7,-1.4
18.6,145,-0.6,-1.3
18.6,145,-0.6,-1.3
18.6,145,-0.7,-1.3
18.6,145,-0.8,-1.3
18.6,145,-0.9,-1.3
18.6,145,-1.1,-1.2
18.6,145,-1.3,-1
18.7,145,-1.4,-0.8
18.7,145,-1.5,-0.6
18.7,145,-1.6,-0.4
18.7,145,-1.5,-0.3
18.7,145,-1.4,-0.1
18.7,145,-1.2,0.1
18.7,145,-0.9,0.2
18.7,145,-0.7,0.4
18.7,145,-0.4,0.5
18.7,146,-0.2,0.7
18.7,146,-0.1,0.8
18.7,146,0,0.9
18.7,146,0,0.9
18.7,146,0,0.8
18.7,146,-0.1,0.6
18.7,146,-0.2,0.4
18.7,146,-0.3,0.1
18.7,146,-0.6,-0.2
18.7,146,-0.9,-0.5
18.7,146,-1.2,-0.7
18.7,146,-1.7,-0.8
18.7,146,-2.1,-0.8
18.7,146,-2.5,-0.7
18.7,146,-2.8,-0.5
18.7,146,-3,-0.2
18.8,146,-3.1,0.2
18.8,146,-3.1,0.6
18.8,146,-3,1.1
18.8,146,-2.9,1.5
18.8,146,-2.7,1.9
18.8,146,-2.5,2.3
18.8,146,-2.3,2.6
18.8,146,-2,2.7
18.8,146,-1.8,2.8
18.8,146,-1.7,2.6
18.8,146,-1.6,2.2
18.8,146,-1.6,1.8
18.8,146,-1.5,1.2
18.8,146,-1.3,0.5
18.8,146,-1.1,-0.1
18.8,146,-0.7,-0.6
18.8,147,-0.2,-1.1
18.8,147,0.3,-1.5
18.8,147,0.8,-1.8
18.8,147,1.3,-2
18.8,147,1.8,-2.2
18.8,147,2.2,-2.3
18.8,147,2.4,-2.4
18.8,147,2.5,-2.5
18.8,147,2.5,-2.6
18.9,147,2.3,-2.7
18.9,147,2,-2.7
18.9,147,1.7,-2.6
18.9,147,1.3,-2.4
18.9,147,1.1,-2.1
18.9,147,1,-1.8
18.9,147,0.9,-1.5
18.9,147,0.9,-1.3
18.9,147,0.9,-1.2
18.9,147,0.8,-1.2
18.9,147,0.6,-1.3
18.9,147,0.3,-1.4
18.9,147,0,-1.5
18.9,147,-0.4,-1.6
18.9,147,-0.9,-1.7
18.9,147,-1.4,-1.7
18.9,147,-1.9,-1.7
18.9,147,-2.3,-1.6
18.9,147,-2.6,-1.5
18.9,147,-2.7,-1.4
18.9,147,-2.8,-1.3
18.9,147,-2.8,-1.1
18.9,147,-2.7,-1.1
18.9,148,-2.5,-1
18.9,148,-2.3,-0.8
19,148,-2,-0.7
19,148,-1.7,-0.5
19,148,-1.5,-0.4
19,148,-1.3,-0.4
19,148,-1.3,-0.3
19,148,-1.3,-0.3
19,148,-1.3,-0.2
19,148,-1.4,-0.1
19,148,-1.6,0
19,148,-1.9,0.1
19,148,-2.2,0.2
19,148,-2.5,0.4
19,148,-2.7,0.7
19,148,-2.8,0.9
19,148,-2.9,1
19,148,-2.9,1.1
19,148,-2.8,1.1
19,148,-2.7,1.1
19,148,-2.6,1.1
19,148,-2.3,1
19,148,-2,1
19,148,-1.7,1
19,148,-1.2,1
19,148,-0.7,1.1
19,148,-0.2,1.2
19.1,148,0.4,1.4
19.1,148,1.1,1.7
19.1,148,1.8,2
19.1,148,2.4,2.4
19.1,148,3,2.6
19.1,149,3.5,2.9
19.1,149,3.9,3
19.1,149,4,3.1
19.1,149,4,3
19.1,149,3.8,2.8
19.1,149,3.4,2.4
19.1,149,2.7,1.7
19.1,149,1.7,0.9
19.1,149,0.7,0
19.1,149,-0.4,-0.9
19.1,149,-1.4,-1.7
19.1,149,-2.2,-2.3
19.1,149,-2.7,-2.7
19.1,149,-3,-2.8
19.1,149,-3.1,-2.8
19.1,149,-3,-2.6
19.1,149,-2.6,-2.1
19.1,149,-2.1,-1.5
19.1,149,-1.3,-0.7
19.1,149,-0.4,0.2
19.2,149,0.6,1.2
19.2,149,1.6,2.4
19.2,149,2.6,3.5
19.2,149,3.4,4.6
19.2,149,4.1,5.5
19.2,149,4.7,6.3
19.2,149,5.2,6.9
19.2,149,5.5,7.3
19.2,149,5.8,7.4
19.2,149,6.1,7.4
19.2,149,6.2,7.2
19.2,149,6.3,6.8
19.2,150,6.4,6.2
19.2,150,6.4,5.6
19.2,150,6.5,4.9
19.2,150,6.5,4.2
19.2,150,6.5,3.4
19.2,150,6.4,2.6
19.2,150,6.1,1.7
19.2,150,5.6,0.9
19.2,150,5,0
19.2,150,4.4,-0.7
19.2,150,3.6,-1.3
19.2,150,2.8,-1.8
19.2,150,2,-2
19.3,150,1.3,-2.1
19.3,150,0.5,-2.1
19.3,150,-0.1,-1.9
19.3,150,-0.7,-1.6
19.3,150,-1.2,-1.4
19.3,150,-1.6,-1.1
19.3,150,-2,-0.9
19.3,150,-2.3,-0.7
19.3,150,-2.5,-0.6
19.3,150,-2.6,-0.5
19.3,150,-2.6,-0.3
19.3,150,-2.5,-0.2
19.3,150,-2.3,0
19.3,150,-2,0.2
19.3,150,-1.7,0.4
19.3,150,-1.4,0.5
19.3,150,-1.1,0.6
19.3,150,-0.6,0.7
19.3,150,-0.1,0.7
19.3,151,0.5,0.8
19.3,151,1,0.8
19.3,151,1.5,0.9
19.3,151,1.9,0.9
19.3,151,2.2,0.8
19.3,151,2.4,0.7
19.4,151,2.4,0.5
19.4,151,2.2,0.3
19.4,151,1.9,0
19.4,151,1.4,-0.3
19.4,151,0.9,-0.5
19.4,151,0.4,-0.7
19.4,151,0.1,-0.9
19.4,151,-0.1,-1
19.4,151,-0.1,-1.1
19.4,151,0.2,-1.2
19.4,151,0.7,-1.2
19.4,151,1.3,-1.3
19.4,151,2,-1.3
19.4,151,2.8,-1.3
19.4,151,3.5,-1.2
19.4,151,4.1,-1.1
19.4,151,4.5,-1
19.4,151,4.8,-0.8
19.4,151,5,-0.5
19.4,151,4.9,-0.3
19.4,151,4.8,0
19.4,151,4.5,0.2
19.4,151,4.1,0.5
19.4,151,3.7,0.7
19.4,151,3.2,1
19.5,151,2.6,1.2
19.5,152,2,1.4
19.5,152,1.3,1.4
19.5,152,0.5,1.3
19.5,152,-0.1,1.1
19.5,152,-0.7,0.9
19.5,152,-1.2,0.7
19.5,152,-1.5,0.4
19.5,152,-1.7,0.2
19.5,152,-1.8,0
19.5,152,-1.9,-0.2
19.5,152,-2,-0.3
19.5,152,-2.2,-0.5
19.5,152,-2.6,-0.7
19.5,152,-3,-0.9
19.5,152,-3.5,-1.2
19.5,152,-4.1,-1.5
19.5,152,-4.6,-1.9
19.5,152,-5,-2.3
19.5,152,-5.3,-2.8
19.5,152,-5.5,-3.3
19.5,152,-5.6,-3.6
19.5,152,-5.5,-3.9
19.5,152,-5.4,-4
19.5,152,-5,-4
19.6,152,-4.6,-3.8
19.6,152,-4.1,-3.5
19.6,152,-3.5,-3
19.6,152,-2.9,-2.5
19.6,152,-2.2,-2
19.6,152,-1.6,-1.4
19.6,152,-0.9,-0.8
19.6,152,-0.3,-0.2
19.6,153,0.2,0.4
19.6,153,0.6,0.9
19.6,153,0.8,1.3
19.6,153,0.8,1.6
19.6,153,0.6,1.8
19.6,153,0.3,1.9
19.6,153,-0.1,1.8
19.6,153,-0.6,1.6
19.6,153,-1,1.4
19.6,153,-1.3,1.1
19.6,153,-1.6,0.7
19.6,153,-1.7,0.2
19.6,153,-1.8,-0.2
19.6,153,-1.8,-0.7
19.6,153,-1.8,-1.2
19.6,153,-1.8,-1.6
19.6,153,-1.7,-2
19.7,153,-1.6,-2.4
19.7,153,-1.5,-2.7
19.7,153,-1.4,-2.9
19.7,153,-1.2,-3
19.7,153,-1.2,-3.1
19.7,153,-1.2,-3.2
19.7,153,-1.2,-3.3
19.7,153,-1.3,-3.4
19.7,153,-1.5,-3.5
19.7,153,-1.8,-3.5
19.7,153,-2,-3.5
19.7,153,-2.4,-3.6
19.7,153,-2.7,-3.6
19.7,153,-3,-3.6
19.7,153,-3.3,-3.6
19.7,154,-3.5,-3.6
19.7,154,-3.8,-3.5
19.7,154,-3.9,-3.6
19.7,154,-4,-3.6
19.7,154,-3.9,-3.7
19.7,154,-3.6,-3.7
19.7,154,-3.2,-3.7
19.7,154,-2.8,-3.7
19.7,154,-2.3,-3.7
19.7,154,-1.8,-3.7
19.8,154,-1.3,-3.8
19.8,154,-0.8,-3.9
19.8,154,-0.5,-4
19.8,154,-0.3,-4.1
19.8,154,-0.2,-4.1
19.8,154,-0.3,-4.1
19.8,154,-0.5,-3.9
19.8,154,-0.8,-3.6
19.8,154,-1.2,-3.2
19.8,154,-1.6,-2.7
19.8,154,-2,-2.1
19.8,154,-2.2,-1.4
19.8,154,-2.3,-0.7
19.8,154,-2.3,0.1
19.8,154,-2.2,0.8
19.8,154,-2.1,1.5
19.8,154,-2.1,2.2
19.8,154,-2,2.7
19.8,154,-1.9,3
19.8,154,-1.9,3.3
19.8,154,-1.8,3.4
19.8,154,-1.7,3.3
19.8,155,-1.6,3.3
19.8,155,-1.4,3.2
19.8,155,-1.2,3
19.9,155,-0.9,2.9
19.9,155,-0.6,2.8
19.9,155,-0.3,2.6
19.9,155,-0.2,2.4
19.9,155,-0.2,2
19.9,155,-0.4,1.6
19.9,155,-0.8,1.1
19.9,155,-1.2,0.6
19.9,155,-1.6,0.1
19.9,155,-1.9,-0.2
19.9,155,-2.2,-0.5
19.9,155,-2.2,-0.6
19.9,155,-2.1,-0.6
19.9,155,-1.7,-0.4
19.9,155,-1.1,-0.1
19.9,155,-0.2,0.4
19.9,155,0.8,1
19.9,155,1.9,1.6
19.9,155,3,2.3
19.9,155,4.1,2.9
19.9,155,5.2,3.4
19.9,155,6.2,3.8
19.9,155,7.2,4.2
19.9,155,8,4.5
19.9,155,8.8,4.7
20,155,9.3,4.9
20,155,9.8,5.1
20,155,10,5.3
20,155,10.1,5.5
20,156,10,5.6
20,156,9.8,5.8
20,156,9.5,5.9
20,156,9.2,6
20,156,8.7,6
20,156,8.2,6.1
20,156,7.5,6.1
20,156,6.6,6
20,156,5.6,5.9
20,156,4.6,5.8
20,156,3.5,5.5
20,156,2.5,5.2
20,156,1.5,4.9
20,156,0.6,4.5
20,156,-0.2,4.1
20,156,-0.8,3.7
20,156,-1.4,3.3
20,156,-1.8,2.9
20,156,-2.1,2.5
20,156,-2.3,2.1
20,156,-2.5,1.7
20.1,156,-2.7,1.3
20.1,156,-2.8,0.9
20.1,156,-2.8,0.5
20.1,156,-2.7,0.2
20.1,156,-2.5,0
20.1,156,-2.3,-0.1
20.1,156,-2,-0.2
20.1,156,-1.7,-0.4
20.1,156,-1.3,-0.5
20.1,156,-0.9,-0.7
20.1,156,-0.5,-1
20.1,157,-0.1,-1.2
20.1,157,0.4,-1.5
20.1,157,0.8,-1.8
20.1,157,1.2,-2
20.1,157,1.6,-2.1
20.1,157,2,-2.3
20.1,157,2.3,-2.3
20.1,157,2.5,-2.4
20.1,157,2.6,-2.4
20.1,157,2.5,-2.4
20.1,157,2.4,-2.4
20.1,157,2.2,-2.3
20.1,157,2,-2.2
20.1,157,1.8,-2.1
20.2,157,1.6,-2
20.2,157,1.5,-2
20.2,157,1.4,-1.9
20.2,157,1.4,-1.8
20.2,157,1.5,-1.7
20.2,157,1.7,-1.6
20.2,157,1.9,-1.4
20.2,157,2.1,-1.3
20.2,157,2.2,-1.3
20.2,157,2.3,-1.3
20.2,157,2.3,-1.2
20.2,157,2.2,-1.1
20.2,157,2,-0.9
20.2,157,1.9,-0.6
20.2,157,1.7,-0.4
20.2,157,1.5,-0.2
20.2,157,1.2,0
20.2,157,0.9,0.1
20.2,158,0.5,0.1
20.2,158,0.1,0
20.2,158,-0.4,0
20.2,158,-0.8,0
20.2,158,-1.2,-0.1
20.2,158,-1.4,-0.1
20.2,158,-1.7,-0.2
20.3,158,-1.9,-0.2
20.3,158,-2.1,-0.2
20.3,158,-2.4,-0.2
20.3,158,-2.6,-0.2
20.3,158,-2.8,-0.2
20.3,158,-3,-0.1
20.3,158,-3,0.1
20.3,158,-3,0.2
20.3,158,-2.9,0.4
20.3,158,-2.7,0.5
20.3,158,-2.5,0.6
20.3,158,-2.3,0.6
20.3,158,-2.1,0.6
20.3,158,-2,0.5
20.3,158,-1.9,0.4
20.3,158,-1.8,0.3
20.3,158,-1.8,0.1
20.3,158,-1.8,-0.2
20.3,158,-1.9,-0.5
20.3,158,-2,-0.7
20.3,158,-2.2,-0.9
20.3,158,-2.4,-0.9
20.3,158,-2.6,-0.9
20.3,158,-2.8,-0.9
20.3,158,-3,-0.7
20.4,159,-3.2,-0.6
20.4,159,-3.4,-0.4
20.4,159,-3.6,-0.2
20.4,159,-3.7,0
20.4,159,-3.7,0.2
20.4,159,-3.7,0.4
20.4,159,-3.6,0.6
20.4,159,-3.4,0.7
20.4,159,-3.3,0.7
20.4,159,-3.1,0.6
20.4,159,-2.8,0.5
20.4,159,-2.6,0.4
20.4,159,-2.3,0.2
20.4,159,-2.1,0.1
20.4,159,-1.9,0
20.4,159,-1.9,-0.1
20.4,159,-1.8,-0.2
20.4,159,-1.9,-0.3
20.4,159,-1.9,-0.4
20.4,159,-2,-0.6
20.4,159,-2,-0.8
20.4,159,-2,-0.9
20.4,159,-2,-1
20.4,159,-1.9,-1.1
20.4,159,-1.8,-1.2
20.5,159,-1.7,-1.4
20.5,159,-1.6,-1.4
20.5,159,-1.5,-1.5
20.5,159,-1.4,-1.5
20.5,159,-1.4,-1.4
20.5,159,-1.6,-1.3
20.5,159,-1.8,-1.1
20.5,160,-2.1,-0.8
20.5,160,-2.4,-0.4
20.5,160,-2.7,0
20.5,160,-2.9,0.5
20.5,160,-2.9,1.1
20.5,160,-2.8,1.7
20.5,160,-2.6,2.2
20.5,160,-2.2,2.7
20.5,160,-1.7,3.1
20.5,160,-1.2,3.5
20.5,160,-0.7,3.7
20.5,160,-0.2,3.8
20.5,160,0.2,3.9
20.5,160,0.5,3.8
20.5,160,0.7,3.7
20.5,160,0.7,3.5
20.5,160,0.7,3.3
20.5,160,0.5,3
20.6,160,0.2,2.7
20.6,160,-0.2,2.3
20.6,160,-0.6,1.9
20.6,160,-1,1.5
20.6,160,-1.3,1.2
20.6,160,-1.5,0.9
20.6,160,-1.6,0.7
20.6,160,-1.6,0.6
20.6,160,-1.6,0.4
20.6,160,-1.5,0.3
20.6,160,-1.2,0.2
20.6,160,-0.9,0.1
20.6,160,-0.4,0
20.6,160,0,-0.2
20.6,161,0.5,-0.5
20.6,161,1,-0.8
20.6,161,1.4,-1.2
20.6,161,1.8,-1.7
20.6,161,2.1,-2.1
20.6,161,2.3,-2.5
20.6,161,2.4,-2.8
20.6,161,2.5,-3.1
20.6,161,2.4,-3.3
20.6,161,2.1,-3.4
20.6,161,1.5,-3.6
20.7,161,0.7,-3.7
20.7,161,-0.4,-3.9
20.7,161,-1.5,-4.1
20.7,161,-2.5,-4.3
20.7,161,-3.4,-4.4
20.7,161,-4.1,-4.5
20.7,161,-4.6,-4.5
20.7,161,-4.7,-4.4
20.7,161,-4.6,-4.2
20.7,161,-4.3,-3.9
20.7,161,-3.8,-3.5
20.7,161,-3,-3
20.7,161,-2.1,-2.4
20.7,161,-1,-1.9
20.7,161,0.2,-1.4
20.7,161,1.3,-0.9
20.7,161,2.5,-0.4
20.7,161,3.5,0.1
20.7,161,4.4,0.6
20.7,161,5,1.2
20.7,161,5.5,1.8
20.7,162,5.8,2.4
20.7,162,5.8,2.9
20.7,162,5.7,3.3
20.7,162,5.5,3.7
20.8,162,5.2,3.8
20.8,162,4.8,3.9
20.8,162,4.3,3.8
20.8,162,3.7,3.5
20.8,162,3.1,3.2
20.8,162,2.6,2.7
20.8,162,2.1,2.1
20.8,162,1.7,1.4
20.8,162,1.4,0.6
20.8,162,1.3,-0.2
20.8,162,1.3,-1
20.8,162,1.4,-1.7
20.8,162,1.7,-2.3
20.8,162,2,-2.7
20.8,162,2.5,-3
20.8,162,3,-3.2
20.8,162,3.5,-3.2
20.8,162,4.1,-3.1
20.8,162,4.7,-2.8
20.8,162,5.3,-2.5
20.8,162,5.8,-2
20.8,162,6.2,-1.5
20.8,162,6.6,-1
20.8,162,6.9,-0.5
20.8,162,7,-0.1
20.9,162,7.1,0.3
20.9,162,7.2,0.6
20.9,162,7.2,0.9
20.9,163,7.2,1.2
20.9,163,7.2,1.5
20.9,163,7.1,1.7
20.9,163,6.9,1.8
20.9,163,6.7,1.8
20.9,163,6.3,1.6
20.9,163,5.9,1.3
20.9,163,5.5,0.9
20.9,163,4.9,0.5
20.9,163,4.4,0.1
20.9,163,3.7,-0.4
20.9,163,3,-0.9
20.9,163,2.3,-1.2
20.9,163,1.5,-1.6
20.9,163,0.8,-1.9
20.9,163,0.1,-2.1
20.9,163,-0.4,-2.3
20.9,163,-0.8,-2.5
20.9,163,-1.1,-2.6
20.9,163,-1.4,-2.6
20.9,163,-1.6,-2.5
20.9,163,-1.8,-2.3
21,163,-2.1,-2
21,163,-2.3,-1.7
21,163,-2.3,-1.3
21,163,-2.3,-0.9
21,163,-2.1,-0.4
21,163,-1.8,0
21,163,-1.4,0.3
21,163,-0.9,0.6
21,163,-0.4,0.8
21,163,0.1,1
21,164,0.7,1.2
21,164,1.2,1.3
21,164,1.8,1.4
21,164,2.4,1.4
21,164,2.9,1.5
21,164,3.3,1.5
21,164,3.6,1.5
21,164,3.7,1.4
21,164,3.7,1.4
21,164,3.7,1.2
21,164,3.5,1
21,164,3.3,0.8
21,164,3.2,0.6
21,164,3.1,0.3
21,164,3,0.1
21.1,164,2.9,0
21.1,164,2.7,-0.2
21.1,164,2.3,-0.4
21.1,164,1.8,-0.6
21.1,164,1,-0.9
21.1,164,0.1,-1.1
21.1,164,-1,-1.3
21.1,164,-2.1,-1.4
21.1,164,-3.3,-1.5
21.1,164,-4.5,-1.5
21.1,164,-5.5,-1.4
21.1,164,-6.4,-1.2
21.1,164,-7,-1
21.1,164,-7.5,-0.8
21.1,164,-7.8,-0.6
21.1,164,-8,-0.4
21.1,164,-8.1,-0.1
21.1,165,-8.1,0.3
21.1,165,-8.1,0.6
21.1,165,-7.9,1.1
21.1,165,-7.8,1.4
21.1,165,-7.6,1.8
21.1,165,-7.3,2
21.1,165,-7,2.1
21.1,165,-6.7,2.2
21.2,165,-6.3,2.2
21.2,165,-5.9,2.2
21.2,165,-5.5,2.1
21.2,165,-5.1,1.9
21.2,165,-4.8,1.7
21.2,165,-4.3,1.5
21.2,165,-3.9,1.3
21.2,165,-3.3,1
21.2,165,-2.7,0.9
21.2,165,-2.1,0.7
21.2,165,-1.4,0.7
21.2,165,-0.8,0.6
21.2,165,-0.2,0.6
21.2,165,0.3,0.7
21.2,165,0.8,0.8
21.2,165,1.1,0.9
21.2,165,1.4,0.9
21.2,165,1.5,0.9
21.2,165,1.5,0.8
21.2,165,1.4,0.6
21.2,165,1.2,0.4
21.2,165,1,0.1
21.2,165,0.6,-0.2
21.2,165,0.1,-0.5
21.2,166,-0.4,-0.7
21.3,166,-0.8,-0.8
21.3,166,-1.3,-0.9
21.3,166,-1.7,-1
21.3,166,-2,-1
21.3,166,-2.3,-1
21.3,166,-2.4,-1
21.3,166,-2.4,-1
21.3,166,-2.4,-0.9
21.3,166,-2.2,-0.8
21.3,166,-2,-0.8
21.3,166,-1.8,-0.7
21.3,166,-1.5,-0.8
21.3,166,-1.4,-0.9
21.3,166,-1.3,-1.2
21.3,166,-1.4,-1.6
21.3,166,-1.6,-2.1
21.3,166,-1.9,-2.6
21.3,166,-2.3,-3
21.3,166,-2.8,-3.4
21.3,166,-3.3,-3.6
21.3,166,-3.7,-3.6
21.3,166,-4,-3.6
21.3,166,-4.1,-3.3
21.3,166,-4,-2.9
21.3,166,-3.8,-2.4
21.4,166,-3.4,-1.8
21.4,166,-2.9,-1.3
21.4,166,-2.4,-0.8
21.4,166,-1.8,-0.3
21.4,166,-1.3,0.2
21.4,166,-0.7,0.6
21.4,167,-0.1,1.1
21.4,167,0.5,1.5
21.4,167,1.1,2
21.4,167,1.7,2.4
21.4,167,2.2,2.8
21.4,167,2.6,3
21.4,167,2.9,3.1
21.4,167,3.1,3.2
21.4,167,3.2,3.2
21.4,167,3.2,3.2
21.4,167,3.2,3.3
21.4,167,3.3,3.5
21.4,167,3.4,3.8
21.4,167,3.6,4.1
21.4,167,3.8,4.6
21.4,167,4.1,5
21.4,167,4.2,5.4
21.4,167,4.2,5.7
21.4,167,4.1,5.8
21.5,167,3.7,5.8
21.5,167,3,5.6
21.5,167,2,5.2
21.5,167,0.8,4.6
21.5,167,-0.5,4
21.5,167,-1.6,3.4
21.5,167,-2.6,2.9
21.5,167,-3.2,2.5
21.5,167,-3.7,2.3
21.5,167,-3.9,2.2
21.5,167,-3.9,2.3
21.5,167,-3.7,2.6
21.5,167,-3.4,3.1
21.5,168,-2.9,3.6
21.5,168,-2.4,4.1
21.5,168,-1.7,4.6
21.5,168,-1,4.9
21.5,168,-0.2,5.1
21.5,168,0.8,5.1
21.5,168,1.8,5
21.5,168,2.8,4.8
21.5,168,3.8,4.4
21.5,168,4.6,4
21.5,168,5.3,3.4
21.5,168,5.9,2.8
21.6,168,6.4,2.2
21.6,168,6.8,1.4
21.6,168,7.1,0.6
21.6,168,7.2,-0.2
21.6,168,7.2,-1
21.6,168,6.9,-1.7
21.6,168,6.5,-2.3
21.6,168,5.8,-2.8
21.6,168,5,-3.3
21.6,168,4,-3.7
21.6,168,3.1,-4
21.6,168,2.2,-4.2
21.6,168,1.5,-4.3
21.6,168,0.9,-4.2
21.6,168,0.5,-4
21.6,168,0.3,-3.6
21.6,168,0.2,-3.2
21.6,168,0.1,-2.7
21.6,168,0.1,-2.2
21.6,168,0.2,-1.8
21.6,169,0.4,-1.4
21.6,169,0.7,-1.1
21.6,169,1.1,-0.8
21.6,169,1.5,-0.7
21.6,169,2,-0.6
21.7,169,2.3,-0.7
21.7,169,2.6,-0.9
21.7,169,2.7,-1.2
21.7,169,2.6,-1.5
21.7,169,2.3,-1.8
21.7,169,1.8,-2.1
21.7,169,1.2,-2.3
21.7,169,0.6,-2.4
21.7,169,-0.1,-2.4
21.7,169,-0.9,-2.4
21.7,169,-1.7,-2.4
21.7,169,-2.5,-2.3
21.7,169,-3.2,-2.2
21.7,169,-3.8,-2.1
21.7,169,-4.3,-2
21.7,169,-4.6,-1.9
21.7,169,-4.8,-1.8
21.7,169,-4.7,-1.7
21.7,169,-4.5,-1.7
21.7,169,-4.2,-1.8
21.7,169,-3.8,-2
21.7,169,-3.3,-2.4
21.7,169,-2.8,-2.9
21.7,169,-2.2,-3.6
21.7,169,-1.7,-4.3
21.8,169,-1.1,-4.9
21.8,169,-0.5,-5.6
21.8,170,0.1,-6.1
21.8,170,0.6,-6.5
21.8,170,1,-6.9
21.8,170,1.3,-7.1
21.8,170,1.5,-7.2
21.8,170,1.6,-7.2
21.8,170,1.7,-7
21.8,170,1.6,-6.6
21.8,170,1.5,-6
21.8,170,1.3,-5.2
21.8,170,1.1,-4.2
21.8,170,0.8,-3.2
21.8,170,0.5,-2.1
21.8,170,0.1,-1.1
21.8,170,-0.4,-0.3
21.8,170,-0.9,0.4
21.8,170,-1.5,1
21.8,170,-2,1.4
21.8,170,-2.5,1.6
21.8,170,-3,1.7
21.8,170,-3.5,1.6
21.8,170,-4,1.5
21.8,170,-4.3,1.2
21.9,170,-4.5,1
21.9,170,-4.6,0.8
21.9,170,-4.6,0.7
21.9,170,-4.4,0.7
21.9,170,-4,0.9
21.9,170,-3.7,1.1
21.9,170,-3.3,1.4
21.9,170,-3,1.7
21.9,170,-2.8,2
21.9,171,-2.6,2.3
21.9,171,-2.6,2.5
21.9,171,-2.5,2.7
21.9,171,-2.4,2.8
21.9,171,-2.1,2.8
21.9,171,-1.9,2.8
21.9,171,-1.6,2.7
21.9,171,-1.3,2.4
21.9,171,-1.1,2.1
21.9,171,-0.8,1.7
21.9,171,-0.6,1.3
21.9,171,-0.3,0.8
21.9,171,-0.1,0.5
21.9,171,0.1,0.1
21.9,171,0.2,-0.1
21.9,171,0.3,-0.2
22,171,0.4,-0.3
22,171,0.4,-0.2
22,171,0.4,0
22,171,0.3,0.3
22,171,0,0.7
22,171,-0.3,1.1
22,171,-0.7,1.5
22,171,-1,1.8
22,171,-1.3,2.1
22,171,-1.4,2.3
22,171,-1.4,2.5
22,171,-1.2,2.6
22,171,-0.8,2.7
22,171,-0.3,2.7
22,171,0.4,2.7
22,171,1.1,2.5
22,172,1.8,2.2
22,172,2.4,1.9
22,172,2.8,1.5
22,172,2.9,1
22,172,2.9,0.5
22,172,2.6,0
22,172,2.2,-0.4
22,172,1.6,-0.8
22,172,0.9,-1.1
22.1,172,0,-1.4
22.1,172,-0.9,-1.7
22.1,172,-1.9,-2
22.1,172,-2.8,-2.2
22.1,172,-3.7,-2.4
22.1,172,-4.5,-2.6
22.1,172,-5.1,-2.7
22.1,172,-5.5,-2.8
22.1,172,-5.7,-2.9
22.1,172,-5.6,-2.9
22.1,172,-5.4,-3
22.1,172,-5,-3
22.1,172,-4.4,-3
22.1,172,-3.7,-3.1
22.1,172,-3,-3.2
22.1,172,-2.1,-3.2
22.1,172,-1.1,-3.2
22.1,172,-0.1,-3.1
22.1,172,0.9,-2.8
22.1,172,2,-2.5
22.1,172,2.9,-2.1
22.1,172,3.7,-1.6
22.1,172,4.2,-1.3
22.1,173,4.6,-1
22.1,173,4.7,-0.8
22.2,173,4.7,-0.7
22.2,173,4.6,-0.8
22.2,173,4.3,-0.8
22.2,173,3.9,-0.9
22.2,173,3.4,-1
22.2,173,2.9,-1
22.2,173,2.3,-1
22.2,173,1.8,-1
22.2,173,1.3,-1
22.2,173,0.8,-0.9
22.2,173,0.4,-0.8
22.2,173,-0.1,-0.7
22.2,173,-0.5,-0.6
22.2,173,-0.8,-0.5
22.2,173,-1.2,-0.5
22.2,173,-1.4,-0.5
22.2,173,-1.6,-0.5
22.2,173,-1.7,-0.7
22.2,173,-1.7,-0.9
22.2,173,-1.7,-1.2
22.2,173,-1.6,-1.5
22.2,173,-1.5,-1.8
22.2,173,-1.4,-2
22.2,173,-1.2,-2.1
22.2,173,-0.9,-2.2
22.3,173,-0.6,-2.2
22.3,173,-0.2,-2.2
22.3,173,0.3,-2.1
22.3,173,0.8,-2.1
22.3,173,1.4,-2.1
22.3,174,2,-2.1
22.3,174,2.7,-1.9
22.3,174,3.4,-1.7
22.3,174,4.2,-1.5
22.3,174,5,-1.2
22.3,174,5.8,-0.9
22.3,174,6.6,-0.5
22.3,174,7.2,-0.2
22.3,174,7.6,0
22.3,174,7.8,0.2
22.3,174,7.7,0.2
22.3,174,7.2,0.1
22.3,174,6.3,-0.2
22.3,174,5.1,-0.7
22.3,174,3.6,-1.2
22.3,174,2.1,-1.8
22.3,174,0.6,-2.3
22.3,174,-0.7,-2.6
22.3,174,-1.8,-2.8
22.3,174,-2.6,-2.8
22.4,174,-3,-2.8
22.4,174,-3.3,-2.6
22.4,174,-3.3,-2.4
22.4,174,-3.1,-2
22.4,174,-2.8,-1.5
22.4,174,-2.4,-0.9
22.4,174,-2,-0.3
22.4,174,-1.5,0.4
22.4,174,-0.9,1.1
22.4,174,-0.5,1.7
22.4,174,-0.1,2.2
22.4,174,0.2,2.5
22.4,175,0.5,2.6
22.4,175,0.6,2.6
22.4,175,0.6,2.5
22.4,175,0.5,2.4
22.4,175,0.3,2.3
22.4,175,0.1,2.1
22.4,175,-0.2,2
22.4,175,-0.4,2
22.4,175,-0.5,2
22.4,175,-0.5,2
22.4,175,-0.4,2.1
22.4,175,-0.1,2.2
22.4,175,0.3,2.3
22.5,175,0.8,2.5
22.5,175,1.4,2.6
22.5,175,2,2.8
22.5,175,2.5,3.1
22.5,175,3.1,3.4
22.5,175,3.8,3.8
22.5,175,4.5,4.4
22.5,175,5.2,5
22.5,175,5.8,5.7
22.5,175,6.2,6.3
22.5,175,6.5,6.8
22.5,175,6.5,7.3
22.5,175,6.4,7.6
22.5,175,6,7.8
22.5,175,5.5,7.9
22.5,175,5,8
22.5,175,4.3,7.9
22.5,175,3.6,7.6
22.5,175,2.8,7.3
22.5,176,1.9,6.9
22.5,176,1.1,6.5
22.5,176,0.3,6
22.5,176,-0.4,5.6
22.5,176,-1,5.1
22.5,176,-1.5,4.6
22.6,176,-2,4.1
22.6,176,-2.4,3.7
22.6,176,-2.8,3.3
22.6,176,-3.2,2.8
22.6,176,-3.6,2.3
22.6,176,-4.1,1.9
22.6,176,-4.5,1.5
22.6,176,-4.8,1.2
22.6,176,-5.1,1
22.6,176,-5.2,0.9
22.6,176,-5.3,0.8
22.6,176,-5.4,0.7
22.6,176,-5.4,0.7
22.6,176,-5.3,0.6
22.6,176,-5.1,0.6
22.6,176,-4.8,0.5
22.6,176,-4.5,0.5
22.6,176,-4.2,0.4
22.6,176,-3.9,0.3
22.6,176,-3.6,0.2
22.6,176,-3.4,0.1
22.6,176,-3.3,-0.1
22.6,176,-3.2,-0.3
22.6,176,-3.1,-0.5
22.6,176,-2.9,-0.8
22.7,176,-2.6,-1
22.7,177,-2.1,-1.1
22.7,177,-1.4,-1.2
22.7,177,-0.6,-1.2
22.7,177,0.2,-1.2
22.7,177,1.2,-1.2
22.7,177,2.1,-1.2
22.7,177,3.1,-1.2
22.7,177,4,-1.3
22.7,177,4.7,-1.4
22.7,177,5.3,-1.6
22.7,177,5.7,-1.8
22.7,177,6,-1.9
22.7,177,6.1,-2
22.7,177,6,-2
22.7,177,5.8,-2
22.7,177,5.3,-2
22.7,177,4.6,-1.9
22.7,177,3.7,-1.9
22.7,177,2.6,-1.8
22.7,177,1.4,-1.8
22.7,177,0.1,-1.7
22.7,177,-1.2,-1.6
22.7,177,-2.5,-1.4
22.7,177,-3.9,-1.1
22.8,177,-5.1,-0.7
22.8,177,-6.1,-0.2
22.8,177,-7,0.2
22.8,177,-7.6,0.6
22.8,177,-8,0.8
22.8,177,-8.1,0.9
22.8,177,-8.1,0.9
22.8,177,-7.9,0.7
22.8,178,-7.6,0.3
22.8,178,-7.2,-0.2
22.8,178,-6.7,-0.8
22.8,178,-6.1,-1.6
22.8,178,-5.5,-2.5
22.8,178,-5,-3.6
22.8,178,-4.4,-4.6
22.8,178,-4.1,-5.6
22.8,178,-3.8,-6.6
22.8,178,-3.7,-7.4
22.8,178,-3.7,-8
22.8,178,-3.5,-8.4
22.8,178,-3.2,-8.5
22.8,178,-2.5,-8.3
22.8,178,-1.5,-7.8
22.8,178,-0.2,-7
22.8,178,1.4,-5.9
22.9,178,3.2,-4.6
22.9,178,5,-3.2
22.9,178,6.8,-1.7
22.9,178,8.4,-0.2
22.9,178,9.7,1.3
22.9,178,10.8,2.6
22.9,178,11.6,3.8
22.9,178,12,4.9
22.9,178,12.2,5.7
22.9,178,12.2,6.2
22.9,178,11.9,6.6
22.9,178,11.4,6.7
22.9,178,10.7,6.7
22.9,178,9.8,6.6
22.9,178,8.8,6.4
22.9,179,7.6,6.1
22.9,179,6.3,5.9
22.9,179,4.9,5.6
22.9,179,3.4,5.3
22.9,179,2,4.9
22.9,179,0.7,4.6
22.9,179,-0.6,4.3
22.9,179,-1.6,4
22.9,179,-2.5,3.9
22.9,179,-3,3.8
23,179,-3.3,3.9
23,179,-3.4,3.9
23,179,-3.2,3.9
23,179,-2.7,3.8
23,179,-2.2,3.6
23,179,-1.5,3.3
23,179,-0.8,2.9
23,179,-0.1,2.5
23,179,0.6,2
23,179,1.3,1.6
23,179,1.8,1.1
23,179,2.2,0.6
23,179,2.4,0.1
23,179,2.5,-0.3
23,179,2.4,-0.7
23,179,2.1,-1
23,179,1.8,-1.3
23,179,1.4,-1.5
23,179,1.1,-1.6
23,179,0.9,-1.5
23,179,0.9,-1.3
23,179,0.9,-1.1
23,180,1,-0.7
23,180,1.1,-0.3
23,180,1.2,0.1
23.1,180,1.3,0.7
23.1,180,1.3,1.3
23.1,180,1.3,1.9
23.1,180,1.2,2.3
23.1,180,1,2.7
23.1,180,0.7,2.9
23.1,180,0.3,2.9
23.1,180,-0.1,2.7
23.1,180,-0.5,2.3
23.1,180,-0.9,1.9
23.1,180,-1.2,1.4
23.1,180,-1.5,0.8
23.1,180,-1.7,0.2
23.1,180,-2,-0.4
23.1,180,-2.3,-1.1
23.1,180,-2.6,-1.8
23.1,180,-2.8,-2.5
23.1,180,-2.9,-3.1
23.1,180,-3,-3.6
23.1,180,-3,-4
23.1,180,-2.9,-4.2
23.1,180,-2.9,-4.4
23.1,180,-3,-4.5
23.1,180,-3.2,-4.5
23.1,180,-3.5,-4.7
23.2,180,-4.1,-5
23.2,180,-4.9,-5.4
23.2,180,-5.8,-6
23.2,180,-6.7,-6.7
23.2,181,-7.6,-7.5
23.2,181,-8.3,-8.2
23.2,181,-8.9,-8.9
23.2,181,-9.3,-9.4
23.2,181,-9.5,-9.9
23.2,181,-9.7,-10.1
23.2,181,-9.7,-10.1
23.2,181,-9.7,-9.9
23.2,181,-9.6,-9.5
23.2,181,-9.4,-8.9
23.2,181,-9,-8.1
23.2,181,-8.5,-7.2
23.2,181,-7.9,-6.2
23.2,181,-7.3,-5.1
23.2,181,-6.6,-4
23.2,181,-6,-2.9
23.2,181,-5.4,-1.9
23.2,181,-4.8,-1
23.2,181,-4.4,-0.2
23.2,181,-4,0.5
23.2,181,-3.6,1.1
23.3,181,-3.2,1.5
23.3,181,-2.9,1.9
23.3,181,-2.6,2.1
23.3,181,-2.3,2.3
23.3,181,-2,2.5
23.3,181,-1.7,2.6
23.3,181,-1.5,2.7
23.3,181,-1.4,2.9
23.3,181,-1.4,3
23.3,181,-1.6,3.2
23.3,181,-1.9,3.3
23.3,182,-2.2,3.4
23.3,182,-2.5,3.4
23.3,182,-2.8,3.5
23.3,182,-3,3.5
23.3,182,-3,3.4
23.3,182,-3,3.4
23.3,182,-2.9,3.2
23.3,182,-2.8,3
23.3,182,-2.7,2.8
23.3,182,-2.6,2.4
23.3,182,-2.5,1.9
23.3,182,-2.3,1.3
23.3,182,-2.2,0.6
23.3,182,-2,0
23.4,182,-1.7,-0.7
23.4,182,-1.5,-1.2
23.4,182,-1.1,-1.7
23.4,182,-0.7,-2.1
23.4,182,-0.2,-2.3
23.4,182,0.3,-2.4
23.4,182,0.8,-2.5
23.4,182,1.3,-2.5
23.4,182,1.7,-2.6
23.4,182,2.2,-2.6
23.4,182,2.6,-2.5
23.4,182,3,-2.5
23.4,182,3.4,-2.3
23.4,182,3.8,-2.1
23.4,182,4.2,-1.9
23.4,182,4.5,-1.7
23.4,182,4.8,-1.4
23.4,182,5,-1.1
23.4,183,5.2,-0.7
23.4,183,5.3,-0.4
23.4,183,5.3,0
23.4,183,5.4,0.4
23.4,183,5.4,0.6
23.4,183,5.3,0.8
23.4,183,5.2,0.8
23.5,183,5.1,0.6
23.5,183,4.9,0.2
23.5,183,4.6,-0.3
23.5,183,4.4,-0.9
23.5,183,4.1,-1.6
23.5,183,3.9,-2.3
23.5,183,3.7,-3
23.5,183,3.6,-3.5
23.5,183,3.5,-3.9
23.5,183,3.4,-4.2
23.5,183,3.2,-4.4
23.5,183,3,-4.5
23.5,183,2.8,-4.4
23.5,183,2.6,-4.3
23.5,183,2.5,-4.1
23.5,183,2.5,-3.9
23.5,183,2.5,-3.7
23.5,183,2.7,-3.5
23.5,183,2.9,-3.3
23.5,183,3,-3.1
23.5,183,3.1,-3
23.5,183,3.1,-2.8
23.5,183,3,-2.7
23.5,183,2.8,-2.6
23.5,183,2.7,-2.6
23.6,184,2.5,-2.5
23.6,184,2.3,-2.4
23.6,184,2.1,-2.2
23.6,184,1.9,-2
23.6,184,1.6,-1.8
23.6,184,1.3,-1.6
23.6,184,1,-1.4
23.6,184,0.6,-1.3
23.6,184,0.4,-1.3
23.6,184,0.1,-1.4
23.6,184,-0.1,-1.7
23.6,184,-0.3,-2.1
23.6,184,-0.5,-2.6
23.6,184,-0.6,-3.1
23.6,184,-0.7,-3.7
23.6,184,-0.7,-4.1
23.6,184,-0.7,-4.6
23.6,184,-0.6,-4.9
23.6,184,-0.4,-5.1
23.6,184,-0.1,-5.1
23.6,184,0.2,-4.9
23.6,184,0.6,-4.5
23.6,184,0.9,-3.9
23.6,184,1.3,-3.2
23.6,184,1.5,-2.3
23.7,184,1.7,-1.3
23.7,184,2,-0.1
23.7,184,2.2,1.1
23.7,184,2.5,2.3
23.7,184,2.9,3.4
23.7,184,3.2,4.4
23.7,184,3.5,5.3
23.7,185,3.6,5.9
23.7,185,3.8,6.3
23.7,185,3.9,6.5
23.7,185,3.9,6.6
23.7,185,4.1,6.7
23.7,185,4.4,6.7
23.7,185,4.7,6.8
23.7,185,5.2,6.8
23.7,185,5.6,6.9
23.7,185,6,6.9
23.7,185,6.4,6.8
23.7,185,6.7,6.6
23.7,185,6.8,6.4
23.7,185,6.7,6.1
23.7,185,6.5,5.8
23.7,185,6.2,5.5
23.7,185,5.8,5.3
23.7,185,5.2,5.1
23.8,185,4.6,5.1
23.8,185,4,5.1
23.8,185,3.3,5.1
23.8,185,2.6,5.2
23.8,185,1.9,5.3
23.8,185,1.4,5.4
23.8,185,1,5.5
23.8,185,0.7,5.7
23.8,185,0.5,5.8
23.8,185,0.4,6
23.8,185,0.5,6.1
23.8,185,0.7,6.1
23.8,185,0.9,6.2
23.8,185,1.2,6.1
23.8,186,1.5,6.1
23.8,186,1.7,6
23.8,186,2,5.9
23.8,186,2.2,5.8
23.8,186,2.5,5.8
23.8,186,2.7,5.8
23.8,186,2.8,5.9
23.8,186,2.9,6
23.8,186,2.9,6.1
23.8,186,2.7,6.2
23.8,186,2.5,6.2
23.9,186,2.1,6.2
23.9,186,1.6,6.2
23.9,186,1,6.2
23.9,186,0.4,6.1
23.9,186,-0.2,6
23.9,186,-0.7,5.8
23.9,186,-1.2,5.6
23.9,186,-1.6,5.3
23.9,186,-1.9,5
23.9,186,-2.2,4.5
23.9,186,-2.3,4
23.9,186,-2.3,3.4
23.9,186,-2.3,2.7
23.9,186,-2.4,2.1
23.9,186,-2.4,1.4
23.9,186,-2.4,0.7
23.9,186,-2.5,0.1
23.9,186,-2.5,-0.5
23.9,186,-2.5,-1
23.9,186,-2.4,-1.5
23.9,186,-2.3,-1.9
23.9,187,-2.2,-2.2
23.9,187,-2.1,-2.5
23.9,187,-2,-2.7
23.9,187,-1.9,-2.8
24,187,-1.9,-2.8
24,187,-2,-2.8
24,187,-2.2,-2.7
24,187,-2.5,-2.7
24,187,-3,-2.8
24,187,-3.6,-3.1
24,187,-4.5,-3.4
24,187,-5.5,-3.8
24,187,-6.6,-4.2
24,187,-7.7,-4.5
24,187,-8.6,-4.8
24,187,-9.4,-4.9
24,187,-9.9,-4.9
24,187,-10.2,-4.8
24,187,-10.2,-4.5
24,187,-10.1,-4.1
24,187,-9.7,-3.6
24,187,-9.1,-3
24,187,-8.3,-2.3
24,187,-7.3,-1.5
24,187,-6.2,-0.6
24,187,-5.1,0.3
24,187,-4,1.1
24,187,-2.9,1.8
24,187,-2,2.3
24.1,187,-1.1,2.6
24.1,187,-0.4,2.8
24.1,187,0.3,2.9
24.1,188,0.9,2.9
24.1,188,1.3,2.9
24.1,188,1.7,2.9
24.1,188,2.1,2.9
24.1,188,2.3,2.9
24.1,188,2.4,2.8
24.1,188,2.4,2.7
24.1,188,2.5,2.6
24.1,188,2.5,2.4
24.1,188,2.5,2.3
24.1,188,2.5,2.1
24.1,188,2.5,1.8
24.1,188,2.6,1.5
24.1,188,2.7,1.2
24.1,188,2.8,0.8
24.1,188,3,0.4
24.1,188,3.2,0.1
24.1,188,3.4,-0.1
24.1,188,3.4,-0.3
24.1,188,3.4,-0.4
24.1,188,3.3,-0.4
24.1,188,3,-0.3
24.2,188,2.8,-0.2
24.2,188,2.4,0
24.2,188,2,0.3
24.2,188,1.6,0.6
24.2,188,1.3,0.9
24.2,188,1,1.2
24.2,188,0.8,1.4
24.2,188,0.6,1.7
24.2,188,0.6,1.9
24.2,188,0.7,2.1
24.2,189,0.9,2.1
24.2,189,1.1,2.1
24.2,189,1.5,2
24.2,189,1.8,1.9
24.2,189,2.1,1.7
24.2,189,2.4,1.4
24.2,189,2.5,1.1
24.2,189,2.5,0.7
24.2,189,2.4,0.2
24.2,189,2.2,-0.4
24.2,189,1.9,-1
24.2,189,1.6,-1.6
24.2,189,1.3,-2.1
24.2,189,1.2,-2.5
24.2,189,1.1,-2.8
24.3,189,1.1,-3
24.3,189,1.2,-3
24.3,189,1.4,-2.9
24.3,189,1.6,-2.7
24.3,189,1.8,-2.4
24.3,189,1.9,-2
24.3,189,2,-1.6
24.3,189,2.1,-1.1
24.3,189,2.1,-0.6
24.3,189,2.2,-0.2
24.3,189,2.2,0.1
24.3,189,2.3,0.4
24.3,189,2.2,0.5
24.3,189,2.1,0.4
24.3,189,1.9,0.3
24.3,189,1.7,0
24.3,189,1.4,-0.4
24.3,190,1.2,-0.9
24.3,190,1.1,-1.5
24.3,190,1,-2.2
24.3,190,1,-2.8
24.3,190,1.1,-3.3
24.3,190,1.1,-3.7
24.3,190,1.2,-4.1
24.3,190,1.3,-4.4
24.4,190,1.3,-4.8
24.4,190,1.2,-5
24.4,190,1.1,-5.2
24.4,190,1,-5.3
24.4,190,0.8,-5.3
24.4,190,0.6,-5.1
24.4,190,0.3,-4.9
24.4,190,-0.1,-4.5
24.4,190,-0.6,-4.2
24.4,190,-1.1,-3.8
24.4,190,-1.7,-3.4
24.4,190,-2.3,-2.9
24.4,190,-2.8,-2.4
24.4,190,-3.3,-1.9
24.4,190,-3.6,-1.3
24.4,190,-3.9,-0.7
24.4,190,-4,-0.1
24.4,190,-4.1,0.4
24.4,190,-4.1,0.7
24.4,190,-4,0.9
24.4,190,-3.9,1
24.4,190,-3.7,1
24.4,190,-3.5,0.8
24.4,190,-3.3,0.6
24.4,191,-3.2,0.2
24.5,191,-3.2,-0.3
24.5,191,-3.1,-0.8
24.5,191,-3.2,-1.4
24.5,191,-3.2,-1.9
24.5,191,-3.3,-2.4
24.5,191,-3.5,-2.8
24.5,191,-3.7,-3.2
24.5,191,-4,-3.5
24.5,191,-4.4,-3.7
24.5,191,-4.8,-3.9
24.5,191,-5.2,-4
24.5,191,-5.5,-4
24.5,191,-5.7,-3.9
24.5,191,-5.9,-3.7
24.5,191,-6,-3.5
24.5,191,-6,-3.4
24.5,191,-6,-3.3
24.5,191,-5.8,-3.2
24.5,191,-5.6,-3.2
24.5,191,-5.3,-3.3
24.5,191,-5,-3.4
24.5,191,-4.6,-3.5
24.5,191,-4.1,-3.5
24.5,191,-3.6,-3.6
24.5,191,-3,-3.5
24.6,191,-2.4,-3.4
24.6,191,-1.8,-3.2
24.6,191,-1.2,-3
24.6,191,-0.8,-2.8
24.6,191,-0.4,-2.6
24.6,191,-0.2,-2.4
24.6,192,-0.1,-2.2
24.6,192,-0.1,-2.1
24.6,192,-0.2,-1.9
24.6,192,-0.3,-1.8
24.6,192,-0.4,-1.6
24.6,192,-0.5,-1.4
24.6,192,-0.6,-1.3
24.6,192,-0.7,-1.1
24.6,192,-0.7,-0.9
24.6,192,-0.7,-0.8
24.6,192,-0.6,-0.7
24.6,192,-0.5,-0.7
24.6,192,-0.3,-0.7
24.6,192,0,-0.7
24.6,192,0.3,-0.7
24.6,192,0.6,-0.8
24.6,192,0.9,-0.9
24.6,192,1,-1
24.6,192,1.1,-1.3
24.7,192,1.1,-1.6
24.7,192,1.1,-1.9
24.7,192,1,-2.2
24.7,192,0.9,-2.5
24.7,192,0.8,-2.8
24.7,192,0.7,-3
24.7,192,0.5,-3.1
24.7,192,0.4,-3.1
24.7,192,0.3,-3
24.7,192,0.2,-2.9
24.7,192,0,-2.6
24.7,192,-0.2,-2.3
24.7,192,-0.4,-2
24.7,193,-0.7,-1.6
24.7,193,-0.9,-1.1
24.7,193,-1.1,-0.6
24.7,193,-1.1,-0.2
24.7,193,-1.1,0.3
24.7,193,-1.1,0.7
24.7,193,-0.9,1.1
24.7,193,-0.5,1.4
24.7,193,0,1.7
24.7,193,0.6,1.9
24.7,193,1.3,2.1
24.7,193,1.9,2.2
24.8,193,2.6,2.3
24.8,193,3.3,2.4
24.8,193,3.9,2.6
24.8,193,4.4,2.8
24.8,193,4.9,3
24.8,193,5.4,3.3
24.8,193,5.7,3.7
24.8,193,5.9,4.2
24.8,193,6.1,4.8
24.8,193,6.1,5.3
24.8,193,6.1,5.8
24.8,193,5.8,6.2
24.8,193,5.5,6.5
24.8,193,5,6.7
24.8,193,4.4,6.8
24.8,193,3.8,6.8
24.8,193,2.9,6.6
24.8,193,1.9,6.3
24.8,193,0.8,5.9
24.8,193,-0.2,5.3
24.8,194,-1.1,4.7
24.8,194,-1.7,4.1
24.8,194,-2.1,3.6
24.8,194,-2.3,3.1
24.8,194,-2.4,2.6
24.9,194,-2.3,2.1
24.9,194,-2.2,1.6
24.9,194,-2,1.1
24.9,194,-1.8,0.7
24.9,194,-1.4,0.3
24.9,194,-1,-0.1
24.9,194,-0.5,-0.4
24.9,194,-0.1,-0.7
24.9,194,0.3,-1
24.9,194,0.7,-1.3
24.9,194,1.1,-1.5
24.9,194,1.4,-1.8
24.9,194,1.7,-2.2
24.9,194,2,-2.6
24.9,194,2.2,-2.9
24.9,194,2.3,-3.3
24.9,194,2.3,-3.6
24.9,194,2.1,-3.9
24.9,194,1.9,-4
24.9,194,1.6,-4.1
24.9,194,1.2,-4.2
24.9,194,0.7,-4.2
24.9,194,0.3,-4.2
24.9,194,-0.1,-4.1
24.9,194,-0.4,-3.9
25,194,-0.6,-3.6
25,194,-0.7,-3.2
25,195,-0.8,-2.7
25,195,-0.7,-2.1
25,195,-0.6,-1.4
25,195,-0.4,-0.7
25,195,-0.3,0
25,195,-0.1,0.7
25,195,0,1.3
25,195,0,1.8
25,195,0,2.2
25,195,0,2.5
25,195,-0.1,2.9
25,195,-0.2,3.1
25,195,-0.3,3.4
25,195,-0.5,3.5
25,195,-0.8,3.7
25,195,-1.2,3.7
25,195,-1.6,3.8
25,195,-2,3.9
25,195,-2.3,4
25,195,-2.6,4.2
25,195,-2.7,4.5
25,195,-2.7,4.8
25,195,-2.7,5.2
25.1,195,-2.6,5.7
25.1,195,-2.5,6.1
25.1,195,-2.3,6.5
25.1,195,-2,6.8
25.1,195,-1.7,6.9
25.1,195,-1.4,6.9
25.1,195,-1,6.6
25.1,195,-0.6,6.2
25.1,195,-0.1,5.7
25.1,196,0.4,5
25.1,196,0.8,4.1
25.1,196,1,3.2
25.1,196,0.6,2.1
25.1,196,-0.3,1
25.1,196,-1.8,-0.4
25.1,196,-3.9,-2
25.1,196,-6.6,-3.8
25.1,196,-9.9,-5.9
25.1,196,-13.8,-8.1
25.1,196,-18,-10.4
25.1,196,-22.3,-12.8
25.1,196,-26.7,-15.2
25.1,196,-30.7,-17.4
25.1,196,-34.4,-19.4
25.1,196,-37.5,-21.2
25.2,196,-39.8,-22.6
25.2,196,-41.4,-23.6
25.2,196,-42.1,-24.1
25.2,196,-42,-24.1
25.2,196,-41.1,-23.6
25.2,196,-39.6,-22.6
25.2,196,-37.4,-21.1
25.2,196,-34.8,-19.2
25.2,196,-31.8,-17.1
25.2,196,-28.5,-14.6
25.2,196,-25,-12
25.2,196,-21.3,-9.3
25.2,196,-17.6,-6.6
25.2,196,-13.8,-3.9
25.2,196,-10.1,-1.3
25.2,196,-6.5,1.1
25.2,197,-3,3.2
25.2,197,0.2,5
25.2,197,3.1,6.4
25.2,197,5.7,7.4
25.2,197,7.9,8.1
25.2,197,9.8,8.6
25.2,197,11.6,9
25.2,197,13.1,9.2
25.2,197,14.6,9.3
25.3,197,15.9,9.2
25.3,197,17.1,9.1
25.3,197,18.1,9
25.3,197,19.1,8.9
25.3,197,19.9,8.9
25.3,197,20.7,9.1
25.3,197,21.4,9.5
25.3,197,22.2,10
25.3,197,22.9,10.6
25.3,197,23.6,11.4
25.3,197,24.3,12.1
25.3,197,25,12.8
25.3,197,25.6,13.4
25.3,197,26.1,13.8
25.3,197,26.5,14.1
25.3,197,26.8,14.2
25.3,197,26.9,14
25.3,197,27,13.7
25.3,197,26.9,13.3
25.3,197,26.7,12.6
25.3,197,26.4,11.8
25.3,197,26,10.8
25.3,197,25.6,9.6
25.3,198,25.2,8.4
25.3,198,24.7,7.3
25.4,198,24.4,6.2
25.4,198,24.1,5.4
25.4,198,23.9,4.8
25.4,198,23.7,4.5
25.4,198,23.7,4.4
25.4,198,23.7,4.6
25.4,198,23.9,5.2
25.4,198,24,5.9
25.4,198,24.2,6.8
25.4,198,24.3,7.8
25.4,198,24.3,8.9
25.4,198,24.2,9.9
25.4,198,24.1,10.9
25.4,198,23.9,11.8
25.4,198,23.6,12.6
25.4,198,23.3,13.2
25.4,198,22.9,13.7
25.4,198,22.4,13.9
25.4,198,21.8,13.8
25.4,198,21.2,13.5
25.4,198,20.6,12.9
25.4,198,20,12.2
25.4,198,19.4,11.3
25.4,198,18.8,10.3
25.4,198,18.2,9.3
25.5,198,17.5,8.2
25.5,198,16.8,7.2
25.5,198,16,6.2
25.5,198,15.2,5.3
25.5,198,14.4,4.5
25.5,199,13.5,3.7
25.5,199,12.4,3.1
25.5,199,11.3,2.5
25.5,199,10.1,1.9
25.5,199,8.9,1.4
25.5,199,7.8,1.1
25.5,199,6.9,0.8
25.5,199,6.3,0.7
25.5,199,5.9,0.7
25.5,199,5.5,0.7
25.5,199,5.3,0.6
25.5,199,5.2,0.5
25.5,199,5,0.2
25.5,199,4.9,-0.1
25.5,199,4.8,-0.5
25.5,199,4.6,-1
25.5,199,4.5,-1.5
25.5,199,4.2,-1.9
25.5,199,4,-2.2
25.5,199,3.7,-2.5
25.6,199,3.4,-2.7
25.6,199,3,-2.8
25.6,199,2.5,-2.8
25.6,199,2,-2.7
25.6,199,1.3,-2.5
25.6,199,0.5,-2.2
25.6,199,-0.3,-1.9
25.6,199,-1.2,-1.4
25.6,199,-2,-1
25.6,199,-2.8,-0.5
25.6,199,-3.6,-0.1
25.6,199,-4.3,0.2
25.6,200,-4.9,0.6
25.6,200,-5.3,0.9
25.6,200,-5.6,1.2
25.6,200,-5.8,1.4
25.6,200,-5.9,1.6
25.6,200,-6.1,1.7
25.6,200,-6.3,1.7
25.6,200,-6.4,1.6
25.6,200,-6.6,1.2
25.6,200,-6.8,0.6
25.6,200,-7,-0.1
25.6,200,-7.3,-1
25.6,200,-7.7,-2
25.7,200,-8.2,-3
25.7,200,-8.7,-3.9
25.7,200,-9.2,-4.8
25.7,200,-9.6,-5.5
25.7,200,-10,-6.1
25.7,200,-10.5,-6.7
25.7,200,-11,-7.3
25.7,200,-11.7,-7.8
25.7,200,-12.4,-8.4
25.7,200,-13.3,-8.9
25.7,200,-14.1,-9.4
25.7,200,-14.9,-9.9
25.7,200,-15.4,-10.2
25.7,200,-15.8,-10.4
25.7,200,-15.9,-10.4
25.7,200,-15.9,-10.3
25.7,200,-15.8,-10.2
25.7,200,-15.5,-10.1
25.7,200,-15.1,-10
25.7,201,-14.6,-9.8
25.7,201,-14,-9.5
25.7,201,-13.2,-9.3
25.7,201,-12.5,-8.9
25.7,201,-11.9,-8.5
25.7,201,-11.2,-8
25.8,201,-10.7,-7.4
25.8,201,-10.4,-6.8
25.8,201,-10.1,-6.1
25.8,201,-10,-5.4
25.8,201,-10,-4.7
25.8,201,-10.1,-4
25.8,201,-10.2,-3.4
25.8,201,-10.4,-2.9
25.8,201,-10.6,-2.6
25.8,201,-10.8,-2.3
25.8,201,-11,-2.2
25.8,201,-11.2,-2.3
25.8,201,-11.4,-2.6
25.8,201,-11.7,-3.1
25.8,201,-12,-3.7
25.8,201,-12.4,-4.4
25.8,201,-12.7,-5.2
25.8,201,-13.1,-6
25.8,201,-13.3,-6.6
25.8,201,-13.4,-7.1
25.8,201,-13.4,-7.5
25.8,201,-13.3,-7.7
25.8,201,-12.9,-7.6
25.8,201,-12.4,-7.4
25.8,201,-11.8,-7.1
25.9,201,-11.1,-6.8
25.9,202,-10.6,-6.5
25.9,202,-10.1,-6.1
25.9,202,-9.7,-5.8
25.9,202,-9.4,-5.5
25.9,202,-9.2,-5.2
25.9,202,-9,-4.9
25.9,202,-8.9,-4.7
25.9,202,-8.8,-4.4
25.9,202,-8.7,-4.3
25.9,202,-8.6,-4.2
25.9,202,-8.5,-4.2
25.9,202,-8.4,-4.3
25.9,202,-8.3,-4.4
25.9,202,-8.3,-4.6
25.9,202,-8.3,-4.7
25.9,202,-8.4,-4.9
25.9,202,-8.6,-5
25.9,202,-8.8,-5.2
25.9,202,-9,-5.3
25.9,202,-9.2,-5.4
25.9,202,-9.4,-5.5
25.9,202,-9.5,-5.7
25.9,202,-9.6,-5.8
25.9,202,-9.5,-5.9
26,202,-9.4,-6
26,202,-9.3,-6
26,202,-9.1,-5.9
26,202,-8.9,-5.8
26,202,-8.7,-5.5
26,202,-8.5,-5.1
26,202,-8.2,-4.6
26,202,-8,-3.9
26,203,-7.8,-3.2
26,203,-7.5,-2.3
26,203,-7.3,-1.5
26,203,-7.1,-0.6
26,203,-7,0.3
26,203,-6.9,1.1
26,203,-6.9,1.8
26,203,-7,2.4
26,203,-7.1,2.9
26,203,-7.4,3.2
26,203,-7.7,3.3
26,203,-7.9,3.3
26,203,-8.1,3.1
26,203,-8.1,2.8
26,203,-7.9,2.4
26,203,-7.6,1.9
26,203,-7.2,1.5
26.1,203,-6.6,1.2
26.1,203,-6,0.9
26.1,203,-5.2,0.8
26.1,203,-4.4,0.7
26.1,203,-3.5,0.7
26.1,203,-2.5,0.9
26.1,203,-1.5,1.1
26.1,203,-0.5,1.3
26.1,203,0.4,1.6
26.1,203,1.1,1.9
26.1,203,1.8,2.2
26.1,203,2.3,2.5
26.1,203,2.6,2.7
26.1,203,2.8,2.8
26.1,203,2.9,2.8
26.1,204,2.8,2.7
26.1,204,2.7,2.4
26.1,204,2.5,2.1
26.1,204,2.2,1.7
26.1,204,1.9,1.3
26.1,204,1.6,1
26.1,204,1.3,0.7
26.1,204,1.1,0.5
26.1,204,0.9,0.3
26.1,204,0.9,0.1
26.2,204,1,0
26.2,204,1.2,-0.1
26.2,204,1.5,-0.1
26.2,204,1.9,0.1
26.2,204,2.2,0.3
26.2,204,2.6,0.5
26.2,204,2.8,0.8
26.2,204,2.8,1
26.2,204,2.8,1.2
26.2,204,2.7,1.4
26.2,204,2.5,1.4
26.2,204,2.2,1.3
26.2,204,1.9,1.2
26.2,204,1.6,0.9
26.2,204,1.1,0.7
26.2,204,0.7,0.4
26.2,204,0.2,0
26.2,204,-0.3,-0.5
26.2,204,-0.7,-0.9
26.2,204,-0.9,-1.3
26.2,204,-1,-1.7
26.2,204,-0.9,-2.1
26.2,205,-0.6,-2.4
26.2,205,-0.1,-2.7
26.2,205,0.5,-3
26.3,205,1.2,-3.1
26.3,205,2.1,-3.2
26.3,205,2.9,-3.2
26.3,205,3.7,-3.2
26.3,205,4.4,-3
26.3,205,5,-2.7
26.3,205,5.6,-2.3
26.3,205,6,-1.8
26.3,205,6.4,-1.3
26.3,205,6.6,-0.8
26.3,205,6.8,-0.3
26.3,205,6.8,0.2
26.3,205,6.7,0.5
26.3,205,6.5,0.9
26.3,205,6.2,1.1
26.3,205,5.9,1.2
26.3,205,5.4,1.3
26.3,205,4.9,1.3
26.3,205,4.4,1.2
26.3,205,4,1.2
26.3,205,3.7,1
26.3,205,3.4,0.9
26.3,205,3.2,0.7
26.3,205,3,0.4
26.3,205,2.8,0.2
26.4,205,2.5,-0.1
26.4,205,2.1,-0.3
26.4,205,1.6,-0.4
26.4,205,1.1,-0.4
26.4,206,0.6,-0.4
26.4,206,0.2,-0.3
26.4,206,-0.2,-0.1
26.4,206,-0.6,0.2
26.4,206,-0.9,0.5
26.4,206,-1,0.9
26.4,206,-1,1.3
26.4,206,-0.9,1.8
26.4,206,-0.6,2.2
26.4,206,-0.1,2.6
26.4,206,0.5,2.9
26.4,206,1.2,3.2
26.4,206,1.9,3.4
26.4,206,2.7,3.6
26.4,206,3.4,3.7
26.4,206,4.1,3.8
26.4,206,4.6,3.8
26.4,206,5,3.7
26.4,206,5.2,3.5
26.4,206,5.3,3.3
26.4,206,5.1,3
26.5,206,4.8,2.8
26.5,206,4.4,2.6
26.5,206,3.8,2.4
26.5,206,3.2,2.3
26.5,206,2.5,2.1
26.5,206,1.8,2
26.5,206,1.3,1.8
26.5,206,0.9,1.7
26.5,206,0.7,1.6
26.5,206,0.7,1.5
26.5,206,0.9,1.4
26.5,207,1.4,1.3
26.5,207,2.1,1.2
26.5,207,3,1
26.5,207,3.9,0.8
26.5,207,4.9,0.6
26.5,207,5.8,0.4
26.5,207,6.5,0.3
26.5,207,7.2,0.2
26.5,207,7.7,0.2
26.5,207,8.1,0.3
26.5,207,8.4,0.5
26.5,207,8.6,0.8
26.5,207,8.6,1
26.5,207,8.6,1.1
26.6,207,8.4,1.2
26.6,207,8.1,1.3
26.6,207,7.6,1.3
26.6,207,7.1,1.4
26.6,207,6.6,1.6
26.6,207,6.2,1.9
26.6,207,5.7,2.2
26.6,207,5.3,2.6
26.6,207,4.9,2.8
26.6,207,4.3,2.9
26.6,207,3.5,2.7
26.6,207,2.5,2.3
26.6,207,1.3,1.6
26.6,207,0.1,0.8
26.6,207,-1,0
26.6,207,-2,-0.8
26.6,207,-2.7,-1.4
26.6,207,-3.2,-1.9
26.6,208,-3.5,-2.3
26.6,208,-3.4,-2.4
26.6,208,-3.2,-2.4
26.6,208,-2.6,-2.2
26.6,208,-1.8,-1.9
26.6,208,-0.8,-1.4
26.6,208,0.3,-0.7
26.7,208,1.5,0
26.7,208,2.5,0.7
26.7,208,3.5,1.5
26.7,208,4.3,2.2
26.7,208,4.9,2.8
26.7,208,5.3,3.3
26.7,208,5.6,3.7
26.7,208,5.8,4.1
26.7,208,6,4.3
26.7,208,6.1,4.5
26.7,208,6.3,4.7
26.7,208,6.4,4.6
26.7,208,6.5,4.5
26.7,208,6.5,4.3
26.7,208,6.4,4.1
26.7,208,6.3,3.7
26.7,208,6.1,3.4
26.7,208,5.8,3.1
26.7,208,5.4,2.9
26.7,208,5,2.7
26.7,208,4.6,2.5
26.7,208,4.1,2.4
26.7,208,3.6,2.3
26.7,208,3.2,2.3
26.7,208,2.8,2.5
26.8,209,2.6,2.9
26.8,209,2.5,3.5
26.8,209,2.5,4.4
26.8,209,2.5,5.4
26.8,209,2.7,6.4
26.8,209,2.8,7.2
26.8,209,2.9,7.9
26.8,209,3,8.3
26.8,209,3,8.4
26.8,209,3.1,8.3
26.8,209,3.3,8
26.8,209,3.4,7.6
26.8,209,3.5,7.1
26.8,209,3.6,6.6
26.8,209,3.7,5.9
26.8,209,3.8,5.3
26.8,209,3.8,4.6
26.8,209,3.7,3.9
26.8,209,3.5,3.2
26.8,209,3.2,2.7
26.8,209,2.9,2.2
26.8,209,2.5,1.9
26.8,209,2.1,1.8
26.8,209,1.7,1.8
26.8,209,1.3,1.8
26.9,209,1,2
26.9,209,0.7,2.3
26.9,209,0.5,2.5
26.9,209,0.3,2.7
26.9,209,0.1,2.8
26.9,209,-0.1,2.9
26.9,209,-0.2,3
26.9,210,-0.2,3.1
26.9,210,-0.1,3.1
26.9,210,0.1,3.1
26.9,210,0.3,3
26.9,210,0.6,2.9
26.9,210,0.8,2.8
26.9,210,1,2.6
26.9,210,1.1,2.3
26.9,210,1.1,2.1
26.9,210,1.1,1.8
26.9,210,1,1.6
26.9,210,1,1.3
26.9,210,0.9,1.1
26.9,210,0.8,0.8
26.9,210,0.6,0.4
26.9,210,0.3,-0.1
26.9,210,-0.1,-0.7
26.9,210,-0.7,-1.4
27,210,-1.3,-2.1
27,210,-1.9,-2.7
27,210,-2.5,-3.3
27,210,-2.9,-3.7
27,210,-3.3,-4
27,210,-3.5,-4.1
27,210,-3.6,-4.1
27,210,-3.5,-3.9
27,210,-3.4,-3.8
27,210,-3.3,-3.6
27,210,-3.3,-3.5
27,210,-3.3,-3.5
27,210,-3.4,-3.5
27,210,-3.5,-3.5
27,211,-3.7,-3.5
27,211,-3.7,-3.5
27,211,-3.7,-3.5
27,211,-3.7,-3.5
27,211,-3.6,-3.5
27,211,-3.5,-3.6
27,211,-3.5,-3.7
27,211,-3.4,-3.8
27,211,-3.4,-3.8
27,211,-3.3,-3.8
27,211,-3.2,-3.8
27.1,211,-3.2,-3.6
27.1,211,-3.1,-3.4
27.1,211,-3,-3.1
27.1,211,-2.9,-2.9
27.1,211,-2.9,-2.6
27.1,211,-2.8,-2.5
27.1,211,-2.8,-2.3
27.1,211,-2.7,-2.3
27.1,211,-2.5,-2.3
27.1,211,-2.2,-2.3
27.1,211,-1.9,-2.3
27.1,211,-1.6,-2.4
27.1,211,-1.1,-2.6
27.1,211,-0.6,-2.7
27.1,211,0,-2.9
27.1,211,0.7,-3
27.1,211,1.4,-3.1
27.1,211,2.2,-3.2
27.1,211,2.9,-3.2
27.1,211,3.5,-3.2
27.1,211,3.9,-3.1
27.1,212,4.1,-3.1
27.1,212,4.1,-3
27.1,212,3.9,-2.9
27.1,212,3.6,-2.8
27.2,212,3.1,-2.7
27.2,212,2.5,-2.6
27.2,212,1.7,-2.5
27.2,212,0.9,-2.4
27.2,212,0,-2.4
27.2,212,-1,-2.4
27.2,212,-2,-2.3
27.2,212,-3,-2.2
27.2,212,-4,-2.2
27.2,212,-4.8,-2.1
27.2,212,-5.6,-2
27.2,212,-6.1,-2
27.2,212,-6.5,-2
27.2,212,-6.7,-2.1
27.2,212,-6.8,-2.3
27.2,212,-6.9,-2.5
27.2,212,-6.9,-2.8
27.2,212,-6.9,-3.1
27.2,212,-6.8,-3.5
27.2,212,-6.7,-3.8
27.2,212,-6.5,-4.1
27.2,212,-6.2,-4.3
27.2,212,-5.9,-4.4
27.2,212,-5.4,-4.4
27.2,212,-5,-4.2
27.3,212,-4.7,-4
27.3,212,-4.4,-3.8
27.3,212,-4.2,-3.6
27.3,213,-4.1,-3.4
27.3,213,-3.9,-3.3
27.3,213,-3.7,-3.3
27.3,213,-3.5,-3.2
27.3,213,-3.2,-3.2
27.3,213,-3,-3.3
27.3,213,-2.8,-3.5
27.3,213,-2.6,-3.9
27.3,213,-2.4,-4.3
27.3,213,-2.2,-4.8
27.3,213,-2,-5.4
27.3,213,-1.8,-6
27.3,213,-1.6,-6.6
27.3,213,-1.5,-7
27.3,213,-1.4,-7.3
27.3,213,-1.3,-7.5
27.3,213,-1.3,-7.5
27.3,213,-1.1,-7.2
27.3,213,-1,-6.8
27.3,213,-0.8,-6.1
27.3,213,-0.6,-5.2
27.3,213,-0.3,-4.3
27.4,213,0,-3.4
27.4,213,0.2,-2.5
27.4,213,0.5,-1.6
27.4,213,0.8,-0.7
27.4,213,1.1,0.1
27.4,213,1.4,1
27.4,213,1.8,1.8
27.4,213,2.1,2.6
27.4,213,2.4,3.3
27.4,213,2.8,4
27.4,214,3.1,4.5
27.4,214,3.5,5
27.4,214,3.8,5.4
27.4,214,4.2,5.8
27.4,214,4.7,6.2
27.4,214,5.1,6.6
27.4,214,5.5,7.1
27.4,214,5.9,7.5
27.4,214,6.2,7.9
27.4,214,6.4,8.2
27.4,214,6.5,8.4
27.4,214,6.5,8.5
27.4,214,6.3,8.4
27.4,214,6,8.2
27.4,214,5.7,8
27.5,214,5.3,7.7
27.5,214,4.9,7.4
27.5,214,4.5,7.2
27.5,214,4.1,6.9
27.5,214,3.7,6.7
27.5,214,3.3,6.5
27.5,214,2.8,6.3
27.5,214,2.3,6.1
27.5,214,1.8,6
27.5,214,1.2,6
27.5,214,0.7,5.9
27.5,214,0.1,5.8
27.5,214,-0.5,5.7
27.5,214,-1.1,5.5
27.5,214,-1.7,5.2
27.5,214,-2.2,4.9
27.5,214,-2.5,4.7
27.5,215,-2.7,4.5
27.5,215,-2.8,4.4
27.5,215,-2.8,4.3
27.5,215,-2.5,4.3
27.5,215,-2.1,4.3
27.5,215,-1.6,4.4
27.5,215,-0.9,4.5
27.5,215,-0.2,4.6
27.6,215,0.4,4.7
27.6,215,1.1,4.8
27.6,215,1.7,4.9
27.6,215,2.4,5
27.6,215,3.2,5
27.6,215,3.9,5
27.6,215,4.5,5
27.6,215,5,4.8
27.6,215,5.3,4.6
27.6,215,5.6,4.3
27.6,215,5.8,4.1
27.6,215,6.1,3.9
27.6,215,6.4,3.8
27.6,215,6.8,3.7
27.6,215,7.2,3.6
27.6,215,7.5,3.5
27.6,215,7.7,3.4
27.6,215,7.8,3.3
27.6,215,7.8,3.1
27.6,215,7.5,3
27.6,215,6.9,2.9
27.6,215,6.1,2.8
27.6,215,5.1,2.7
27.6,215,3.9,2.6
27.6,216,2.6,2.6
27.7,216,1.3,2.6
27.7,216,-0.1,2.6
27.7,216,-1.4,2.6
27.7,216,-2.7,2.5
27.7,216,-3.8,2.4
27.7,216,-4.7,2.1
27.7,216,-5.5,1.8
27.7,216,-6.1,1.5
27.7,216,-6.5,1.2
27.7,216,-6.7,0.9
27.7,216,-6.6,0.6
27.7,216,-6.3,0.3
27.7,216,-5.9,0.1
27.7,216,-5.3,-0.2
27.7,216,-4.6,-0.5
27.7,216,-3.9,-0.9
27.7,216,-3.1,-1.3
27.7,216,-2.4,-1.8
27.7,216,-1.7,-2.3
27.7,216,-1.1,-2.7
27.7,216,-0.6,-3
27.7,216,-0.2,-3.1
27.7,216,0.1,-3.1
27.7,216,0.3,-3
27.7,216,0.6,-2.7
27.8,216,0.9,-2.4
27.8,216,1.1,-2.1
27.8,216,1.1,-2
27.8,216,0.9,-1.9
27.8,216,0.6,-2.1
27.8,216,0.2,-2.3
27.8,217,-0.4,-2.6
27.8,217,-1,-3
27.8,217,-1.7,-3.3
27.8,217,-2.3,-3.6
27.8,217,-2.9,-3.9
27.8,217,-3.5,-4.3
27.8,217,-3.9,-4.7
27.8,217,-4.3,-5
27.8,217,-4.5,-5.4
27.8,217,-4.5,-5.6
27.8,217,-4.4,-5.8
27.8,217,-4.2,-5.8
27.8,217,-4,-5.8
27.8,217,-3.7,-5.7
27.8,217,-3.3,-5.4
27.8,217,-2.9,-5.1
27.8,217,-2.4,-4.7
27.8,217,-2,-4.3
27.8,217,-1.6,-3.9
27.9,217,-1.2,-3.6
27.9,217,-0.9,-3.4
27.9,217,-0.7,-3.3
27.9,217,-0.5,-3.2
27.9,217,-0.3,-3.1
27.9,217,0,-3.1
27.9,217,0.3,-3.1
27.9,217,0.7,-3.1
27.9,217,1,-3.1
27.9,217,1.2,-3.2
27.9,217,1.2,-3.3
27.9,217,1.2,-3.3
27.9,217,0.9,-3.4
27.9,218,0.6,-3.4
27.9,218,0.2,-3.4
27.9,218,-0.3,-3.4
27.9,218,-0.9,-3.3
27.9,218,-1.5,-3.2
27.9,218,-2,-3
27.9,218,-2.4,-2.8
27.9,218,-2.6,-2.6
27.9,218,-2.5,-2.3
27.9,218,-2,-1.9
27.9,218,-1.4,-1.6
27.9,218,-0.6,-1.4
28,218,0.1,-1.2
28,218,0.9,-1.1
28,218,1.6,-1.1
28,218,2.3,-1.2
28,218,2.8,-1.2
28,218,3.3,-1.3
28,218,3.6,-1.5
28,218,3.8,-1.7
28,218,3.7,-2
28,218,3.5,-2.4
28,218,3.2,-2.9
28,218,2.8,-3.3
28,218,2.3,-3.7
28,218,1.8,-4.1
28,218,1.2,-4.4
28,218,0.5,-4.6
28,218,-0.1,-4.8
28,218,-0.6,-5
28,218,-1.1,-5.1
28,218,-1.5,-5.1
28,219,-1.8,-5.1
28,219,-2,-5
28,219,-2.3,-4.8
28,219,-2.5,-4.5
28,219,-2.7,-4
28.1,219,-2.9,-3.6
28.1,219,-3.1,-3.1
28.1,219,-3.2,-2.6
28.1,219,-3.3,-2.2
28.1,219,-3.4,-1.9
28.1,219,-3.3,-1.7
28.1,219,-3.3,-1.6
28.1,219,-3.2,-1.5
28.1,219,-3.1,-1.4
28.1,219,-3.1,-1.3
28.1,219,-3.2,-1.3
28.1,219,-3.2,-1.2
28.1,219,-3.2,-1
28.1,219,-3.3,-0.8
28.1,219,-3.3,-0.6
28.1,219,-3.3,-0.5
28.1,219,-3.4,-0.3
28.1,219,-3.6,-0.2
28.1,219,-3.8,-0.2
28.1,219,-4.1,-0.2
28.1,219,-4.3,-0.2
28.1,219,-4.6,-0.2
28.1,219,-4.9,-0.3
28.1,219,-5.1,-0.5
28.1,219,-5.2,-0.7
28.2,219,-5.3,-0.9
28.2,219,-5.3,-1.1
28.2,220,-5.1,-1.3
28.2,220,-4.8,-1.5
28.2,220,-4.3,-1.6
28.2,220,-3.8,-1.7
28.2,220,-3.1,-1.7
28.2,220,-2.5,-1.6
28.2,220,-1.9,-1.5
28.2,220,-1.4,-1.2
28.2,220,-1.1,-1
28.2,220,-0.8,-0.7
28.2,220,-0.6,-0.4
28.2,220,-0.3,-0.2
28.2,220,-0.1,0
28.2,220,0.1,0.1
28.2,220,0.4,0.2
28.2,220,0.8,0.3
28.2,220,1.2,0.3
28.2,220,1.8,0.4
28.2,220,2.4,0.6
28.2,220,3.1,0.8
28.2,220,3.8,1.1
28.2,220,4.5,1.5
28.2,220,5,1.9
28.3,220,5.4,2.2
28.3,220,5.5,2.4
28.3,220,5.4,2.6
28.3,220,5.2,2.8
28.3,220,4.8,2.9
28.3,220,4.3,3.1
28.3,220,3.8,3.2
28.3,220,3.1,3.4
28.3,220,2.3,3.4
28.3,221,1.5,3.4
28.3,221,0.6,3.3
28.3,221,-0.2,3.1
28.3,221,-1.1,2.8
28.3,221,-1.8,2.4
28.3,221,-2.4,1.9
28.3,221,-2.9,1.5
28.3,221,-3.2,1.1
28.3,221,-3.4,0.7
28.3,221,-3.5,0.4
28.3,221,-3.4,0.3
28.3,221,-3.3,0.3
28.3,221,-3.1,0.4
28.3,221,-2.8,0.5
28.3,221,-2.4,0.7
28.3,221,-2.1,0.9
28.4,221,-1.6,1.2
28.4,221,-1.1,1.5
28.4,221,-0.5,1.9
28.4,221,0.1,2.2
28.4,221,0.7,2.6
28.4,221,1.3,2.9
28.4,221,1.8,3.1
28.4,221,2.2,3.2
28.4,221,2.4,3.2
28.4,221,2.4,3.2
28.4,221,2.3,3
28.4,221,2,2.8
28.4,221,1.7,2.6
28.4,221,1.2,2.2
28.4,221,0.5,1.7
28.4,221,-0.2,1.1
28.4,222,-0.9,0.5
28.4,222,-1.6,-0.2
28.4,222,-2,-0.8
28.4,222,-2.2,-1.4
28.4,222,-2.1,-1.8
28.4,222,-1.8,-2.1
28.4,222,-1.2,-2.3
28.4,222,-0.7,-2.3
28.4,222,-0.1,-2.2
28.5,222,0.5,-2
28.5,222,0.9,-1.7
28.5,222,1.4,-1.3
28.5,222,1.8,-0.8
28.5,222,2.1,-0.2
28.5,222,2.5,0.3
28.5,222,2.7,0.9
28.5,222,2.9,1.3
28.5,222,2.9,1.7
28.5,222,2.9,2
28.5,222,2.7,2.2
28.5,222,2.6,2.4
28.5,222,2.4,2.6
28.5,222,2.3,2.8
28.5,222,2.3,2.9
28.5,222,2.2,3.1
28.5,222,2.1,3.2
28.5,222,2,3.4
28.5,222,1.9,3.6
28.5,222,1.7,3.7
28.5,222,1.4,3.9
28.5,222,1.1,4
28.5,222,0.8,4
28.5,223,0.5,4
28.5,223,0.3,3.9
28.6,223,0,3.7
28.6,223,-0.2,3.5
28.6,223,-0.4,3.2
28.6,223,-0.6,2.9
28.6,223,-0.7,2.7
28.6,223,-0.8,2.5
28.6,223,-0.7,2.3
