0,0,0,0
0,0,-0.1,-0.1
0,0,0.9,1.2
0,0,10.9,13.8
0,0,44.8,56.5
0,0,111.6,140.8
0,0,206,260
0,0,317.5,400.8
0,0,440.1,555.6
0,0,569,718.6
0,0,696.5,880.1
0,0,813.6,1028.8
0,0,913.7,1156.2
0.1,0,992.6,1257
0.1,0,1048.1,1328.8
0.1,0,1079.5,1370.2
0.1,0,1085.8,1380.1
0.1,0,1066.9,1358.4
0.1,0,1025.6,1308.2
0.1,0,966.4,1235.5
0.1,0,892.7,1144.1
0.1,0,806.1,1036.3
0.1,0,710.1,916.4
0.1,0,610,791
0.1,0,509.5,664.7
0.1,0,409.8,539
0.1,0,312.5,415.8
0.1,0,220.7,298.9
0.1,0,136.4,191.2
0.1,0,59.5,92.4
0.1,0,-10.4,2
0.1,0,-72.7,-79
0.1,1,-126.7,-149.8
0.1,1,-173.5,-211.5
0.1,1,-214.4,-265.7
0.1,1,-250.2,-313.3
0.1,1,-281.3,-354.6
0.1,1,-308.4,-390.5
0.2,1,-332.4,-422.2
0.2,1,-354.3,-450.8
0.2,1,-374.8,-477.3
0.2,1,-394,-502
0.2,1,-412,-525.1
0.2,1,-429.4,-547.3
0.2,1,-446.6,-569.3
0.2,1,-463.6,-591.1
0.2,1,-479.8,-612
0.2,1,-495.3,-631.9
0.2,1,-510.6,-651.8
0.2,1,-525.7,-671.5
0.2,1,-539.8,-689.9
0.2,1,-552.5,-706.4
0.2,1,-564.4,-722
0.2,1,-576,-736.9
0.2,1,-586.4,-750.1
0.2,1,-595,-760.8
0.2,1,-602.3,-769.7
0.2,1,-608.9,-777.5
0.2,1,-614,-783.6
0.2,1,-617,-787.1
0.2,1,-618.2,-788.6
0.2,1,-618.5,-789.2
0.2,1,-617.7,-788.4
0.3,1,-615.2,-785.7
0.3,2,-611.4,-781.3
0.3,2,-607.1,-776.2
0.3,2,-602.2,-770.5
0.3,2,-596.4,-763.6
0.3,2,-589.7,-755.4
0.3,2,-582.4,-746.6
0.3,2,-574.7,-737.1
0.3,2,-566.3,-726.8
0.3,2,-557.2,-715.5
0.3,2,-547.6,-703.5
0.3,2,-537.7,-690.9
0.3,2,-527.5,-678
0.3,2,-516.9,-664.5
0.3,2,-506,-650.5
0.3,2,-494.8,-636.1
0.3,2,-483.4,-621.4
0.3,2,-471.8,-606.6
0.3,2,-459.8,-591.2
0.3,2,-447.5,-575.3
0.3,2,-434.9,-559.1
0.3,2,-422.3,-542.9
0.3,2,-409.3,-526.3
0.3,2,-395.7,-509.1
0.3,2,-381.8,-491.6
0.4,2,-368.1,-474.3
0.4,2,-354.3,-457
0.4,2,-340,-439.2
0.4,2,-325.4,-420.9
0.4,2,-311,-402.8
0.4,2,-296.8,-384.7
0.4,2,-282.2,-365.9
0.4,2,-267.4,-346.6
0.4,3,-253,-327.4
0.4,3,-239.1,-308.5
0.4,3,-225.1,-289.3
0.4,3,-211,-269.8
0.4,3,-197.3,-250.6
0.4,3,-184.1,-232
0.4,3,-170.9,-213.6
0.4,3,-157.6,-195
0.4,3,-144.4,-176.7
0.4,3,-131.7,-159.1
0.4,3,-119.1,-141.8
0.4,3,-106.3,-124.3
0.4,3,-93.4,-107
0.4,3,-80.8,-90.3
0.4,3,-68.2,-74
0.4,3,-55.2,-57.5
0.4,3,-41.9,-41.1
0.5,3,-28.7,-25.1
0.5,3,-15.5,-9.4
0.5,3,-2,6.3
0.5,3,11.8,22.1
0.5,3,25.4,37.6
0.5,3,39,52.9
0.5,3,52.4,68.1
0.5,3,65.7,83.1
0.5,3,78.7,97.9
0.5,3,91.1,112.1
0.5,3,103,125.8
0.5,3,114.4,139.1
0.5,3,125.3,152
0.5,3,135.6,164.5
0.5,3,145.5,176.5
0.5,4,154.8,188.1
0.5,4,163.8,199.3
0.5,4,172.5,210.3
0.5,4,180.7,221
0.5,4,188.4,231.1
0.5,4,195.8,241
0.5,4,203.1,250.8
0.5,4,210.1,260.2
0.5,4,216.7,269.2
0.5,4,223,277.7
0.6,4,229.3,286.3
0.6,4,235.6,294.7
0.6,4,241.5,302.7
0.6,4,247.3,310.3
0.6,4,253.2,317.9
0.6,4,259.1,325.4
0.6,4,264.7,332.3
0.6,4,270.1,338.7
0.6,4,275.3,344.9
0.6,4,280.5,350.9
0.6,4,285,356.3
0.6,4,288.7,360.8
0.6,4,292,364.8
0.6,4,295.1,368.3
0.6,4,297.8,371
0.6,4,300.1,372.7
0.6,4,302.3,373.9
0.6,4,304.6,374.7
0.6,4,306.9,374.9
0.6,4,308.9,374.4
0.6,4,310.7,373.4
0.6,4,312.5,372.5
0.6,5,314.1,371.6
0.6,5,315.3,370.6
0.6,5,316,369.8
0.7,5,316.5,369.4
0.7,5,316.6,369.6
0.7,5,316.2,369.9
0.7,5,315.3,370.4
0.7,5,314.1,371.2
0.7,5,312.6,372.3
0.7,5,310.8,373.5
0.7,5,308.6,374.5
0.7,5,306.3,375.5
0.7,5,304.1,376.6
0.7,5,301.8,377.5
0.7,5,299.5,378.2
0.7,5,297.2,378.5
0.7,5,295,378.5
0.7,5,292.7,378.2
0.7,5,290.5,377.3
0.7,5,288.1,376
0.7,5,285.5,374
0.7,5,282.7,371.4
0.7,5,279.7,368.2
0.7,5,276.3,364.5
0.7,5,272.6,360.3
0.7,5,268.8,355.8
0.7,5,264.9,351.1
0.7,5,260.9,346.2
0.8,5,256.7,340.9
0.8,5,252.4,335.5
0.8,5,248.1,330.2
0.8,5,243.7,324.8
0.8,6,239.1,319.2
0.8,6,234.2,313.4
0.8,6,229.2,307.7
0.8,6,224.3,301.9
0.8,6,219.3,295.9
0.8,6,214.1,289.7
0.8,6,209.1,283.4
0.8,6,204.3,277.2
0.8,6,199.6,270.9
0.8,6,195,264.3
0.8,6,190.6,257.8
0.8,6,186.5,251.5
0.8,6,182.5,245.1
0.8,6,178.4,238.5
0.8,6,174.4,231.8
0.8,6,170.4,225.3
0.8,6,166.4,218.7
0.8,6,162.2,212
0.8,6,157.8,205.2
0.8,6,153.4,198.8
0.8,6,148.9,192.5
0.9,6,144,186.1
0.9,6,138.7,179.6
0.9,6,133.3,173.3
0.9,6,127.7,167.2
0.9,6,121.8,161
0.9,6,115.8,154.7
0.9,6,109.8,148.7
0.9,6,104,142.8
0.9,6,98,136.8
0.9,6,91.9,130.7
0.9,6,85.7,124.6
0.9,7,79.4,118.6
0.9,7,73,112.6
0.9,7,66.4,106.7
0.9,7,59.9,100.9
0.9,7,53.5,95.4
0.9,7,47.4,90
0.9,7,41.5,84.7
0.9,7,35.9,79.4
0.9,7,30.6,74.1
0.9,7,25.8,68.9
0.9,7,21.4,63.4
0.9,7,17.3,57.8
0.9,7,13.8,52.1
0.9,7,10.6,46.1
1,7,7.8,39.9
1,7,5.3,33.3
1,7,2.8,26.5
1,7,0.3,19.4
1,7,-2.2,12.2
1,7,-5,4.8
1,7,-8.1,-2.5
1,7,-11.3,-9.7
1,7,-14.5,-16.5
1,7,-17.6,-22.8
1,7,-20.7,-28.5
1,7,-23.6,-33.7
1,7,-26.3,-38.2
1,7,-28.8,-42.1
1,7,-31.1,-45.5
1,7,-33.2,-48.4
1,7,-35,-51
1,7,-36.4,-53.1
1,8,-37.7,-55.2
1,8,-38.7,-57.2
1,8,-39.3,-59.3
1,8,-39.4,-61.1
1,8,-38.8,-62.7
1,8,-37.8,-64.3
1,8,-36.4,-65.6
1.1,8,-34.5,-66.6
1.1,8,-32.7,-67.6
1.1,8,-31.4,-68.7
1.1,8,-30.8,-70.1
1.1,8,-30.9,-71.5
1.1,8,-31.8,-73
1.1,8,-33.6,-74.8
1.1,8,-36.2,-76.9
1.1,8,-39.5,-79
1.1,8,-43.1,-81
1.1,8,-47.2,-83.1
1.1,8,-51.5,-85.4
1.1,8,-55.8,-87.6
1.1,8,-59.8,-89.7
1.1,8,-63.7,-91.8
1.1,8,-67.2,-94
1.1,8,-70.3,-96
1.1,8,-72.8,-97.9
1.1,8,-75,-99.8
1.1,8,-77,-101.9
1.1,8,-79,-104.4
1.1,8,-80.9,-107
1.1,8,-83,-109.9
1.1,8,-85.2,-112.9
1.1,8,-87.4,-115.8
1.2,9,-89.7,-118.1
1.2,9,-91.8,-119.7
1.2,9,-93.8,-120.4
1.2,9,-95.5,-120.3
1.2,9,-96.8,-119.5
1.2,9,-97.7,-118.3
1.2,9,-98.2,-116.8
1.2,9,-98.4,-115.5
1.2,9,-98.3,-114.5
1.2,9,-98.1,-114
1.2,9,-98.1,-114.2
1.2,9,-98.6,-115.1
1.2,9,-99.6,-116.8
1.2,9,-101.3,-119.2
1.2,9,-103.8,-122.1
1.2,9,-106.8,-125.5
1.2,9,-110.5,-129.1
1.2,9,-114.4,-132.8
1.2,9,-118.4,-136.5
1.2,9,-122.1,-139.9
1.2,9,-125.3,-142.9
1.2,9,-127.9,-145.7
1.2,9,-129.8,-148
1.2,9,-130.8,-149.7
1.2,9,-131,-151
1.3,9,-130.3,-151.8
1.3,9,-128.9,-152.1
1.3,9,-126.6,-151.7
1.3,9,-123.5,-150.6
1.3,9,-119.8,-148.9
1.3,9,-115.6,-146.6
1.3,9,-111.2,-143.8
1.3,10,-106.8,-140.9
1.3,10,-102.6,-138
1.3,10,-98.9,-135.3
1.3,10,-95.7,-132.9
1.3,10,-93.2,-130.6
1.3,10,-91.5,-128.6
1.3,10,-90.6,-127
1.3,10,-90.4,-125.6
1.3,10,-90.7,-124.4
1.3,10,-91.6,-123.4
1.3,10,-92.9,-122.7
1.3,10,-94.4,-122.1
1.3,10,-95.8,-121.3
1.3,10,-96.9,-120.3
1.3,10,-97.7,-119.1
1.3,10,-98.2,-117.6
1.3,10,-98,-115.7
1.3,10,-97.2,-113.4
1.4,10,-95.9,-110.8
1.4,10,-94.1,-108
1.4,10,-91.8,-104.8
1.4,10,-89.2,-101.4
1.4,10,-86.2,-98
1.4,10,-83.2,-94.5
1.4,10,-80.1,-91.1
1.4,10,-77,-87.7
1.4,10,-74,-84.5
1.4,10,-71,-81.5
1.4,10,-68,-78.6
1.4,10,-65,-75.8
1.4,10,-62.1,-73
1.4,10,-59.2,-70.3
1.4,11,-56.4,-67.7
1.4,11,-53.8,-65.2
1.4,11,-51.3,-62.8
1.4,11,-49.1,-60.8
1.4,11,-47.1,-59
1.4,11,-45.2,-57.3
1.4,11,-43.5,-55.7
1.4,11,-41.9,-54.2
1.4,11,-40.3,-52.7
1.4,11,-38.7,-51.1
1.4,11,-37.2,-49.5
1.5,11,-35.6,-47.9
1.5,11,-34,-46.2
1.5,11,-32.3,-44.5
1.5,11,-30.5,-42.7
1.5,11,-28.6,-40.8
1.5,11,-26.5,-38.8
1.5,11,-24.4,-36.7
1.5,11,-22.3,-34.5
1.5,11,-20.1,-32.2
1.5,11,-17.9,-29.8
1.5,11,-15.7,-27.2
1.5,11,-13.4,-24.5
1.5,11,-11.1,-21.8
1.5,11,-8.9,-18.9
1.5,11,-6.8,-16.2
1.5,11,-4.8,-13.6
1.5,11,-3,-11.1
1.5,11,-1.3,-8.7
1.5,11,0.3,-6.4
1.5,11,1.7,-4.5
1.5,11,3,-2.8
1.5,12,4,-1.3
1.5,12,4.8,0
1.5,12,5.4,1.1
1.5,12,5.8,2
1.6,12,6.1,2.8
1.6,12,6.5,3.6
1.6,12,7,4.4
1.6,12,7.6,5.2
1.6,12,8.5,6.1
1.6,12,9.6,7
1.6,12,10.8,8
1.6,12,12.3,9.1
1.6,12,14.1,10.2
1.6,12,15.9,11.5
1.6,12,17.7,12.7
1.6,12,19.4,13.9
1.6,12,20.9,15
1.6,12,22.2,16.1
1.6,12,23.4,17.2
1.6,12,24.2,18.1
1.6,12,24.8,18.8
1.6,12,25,19.4
1.6,12,25.1,19.8
1.6,12,24.8,19.9
1.6,12,24.4,19.8
1.6,12,23.8,19.6
1.6,12,23.3,19.4
1.6,12,22.6,19.1
1.6,12,21.9,18.8
1.7,12,21.1,18.5
1.7,12,20.3,18.2
1.7,12,19.5,18
1.7,13,18.6,17.7
1.7,13,17.8,17.6
1.7,13,17,17.4
1.7,13,16.4,17.3
1.7,13,16.1,17.1
1.7,13,16.1,17
1.7,13,16.5,17
1.7,13,17,17
1.7,13,17.9,17.1
1.7,13,18.8,17.2
1.7,13,19.9,17.5
1.7,13,21,17.7
1.7,13,22.1,18
1.7,13,23,18.2
1.7,13,23.7,18.3
1.7,13,24.2,18.4
1.7,13,24.4,18.3
1.7,13,24.4,18.3
1.7,13,24.2,18.1
1.7,13,23.9,17.9
1.7,13,23.4,17.6
1.7,13,22.8,17.1
1.8,13,21.9,16.4
1.8,13,20.8,15.5
1.8,13,19.5,14.5
1.8,13,18.1,13.4
1.8,13,16.7,12.2
1.8,13,15.3,10.9
1.8,13,14,9.7
1.8,13,12.8,8.5
1.8,13,11.7,7.4
1.8,13,10.7,6.4
1.8,14,9.9,5.6
1.8,14,9.3,4.9
1.8,14,8.8,4.5
1.8,14,8.3,4.2
1.8,14,8,4.1
1.8,14,7.8,4.3
1.8,14,7.8,4.8
1.8,14,8,5.3
1.8,14,8.1,5.9
1.8,14,8.4,6.5
1.8,14,8.7,7
1.8,14,8.9,7.5
1.8,14,9.2,8
1.8,14,9.4,8.4
1.8,14,9.6,8.9
1.9,14,9.6,9.3
1.9,14,9.6,9.7
1.9,14,9.5,10.1
1.9,14,9.2,10.6
1.9,14,8.8,11
1.9,14,8.3,11.4
1.9,14,7.7,11.7
1.9,14,6.9,11.9
1.9,14,5.9,12
1.9,14,4.8,11.8
1.9,14,3.7,11.6
1.9,14,2.5,11.2
1.9,14,1.2,10.6
1.9,14,0,9.8
1.9,14,-1.1,9
1.9,14,-2,8.3
1.9,14,-2.7,7.6
1.9,15,-3.3,7
1.9,15,-3.8,6.4
1.9,15,-4.2,6
1.9,15,-4.6,5.5
1.9,15,-5,5.1
1.9,15,-5.3,4.7
1.9,15,-5.5,4.5
1.9,15,-5.6,4.4
2,15,-5.5,4.4
2,15,-5.3,4.6
2,15,-4.9,4.8
2,15,-4.4,5
2,15,-3.8,5.2
2,15,-3.2,5.4
2,15,-2.8,5.4
2,15,-2.5,5.2
2,15,-2.5,4.8
2,15,-2.7,4.2
2,15,-3.1,3.5
2,15,-3.6,2.6
2,15,-4.2,1.7
2,15,-5,0.7
2,15,-5.9,-0.4
2,15,-6.9,-1.4
2,15,-8,-2.5
2,15,-9.1,-3.4
2,15,-10.1,-4.2
2,15,-11,-4.9
2,15,-11.7,-5.5
2,15,-12.4,-6.1
2,15,-12.9,-6.6
2,15,-13.4,-7.1
2,16,-13.8,-7.7
2.1,16,-14.2,-8.2
2.1,16,-14.6,-8.6
2.1,16,-14.9,-9
2.1,16,-15.2,-9.4
2.1,16,-15.4,-9.7
2.1,16,-15.6,-10
2.1,16,-15.8,-10.3
2.1,16,-15.9,-10.5
2.1,16,-15.9,-10.9
2.1,16,-15.9,-11.2
2.1,16,-15.9,-11.6
2.1,16,-15.8,-12
2.1,16,-15.7,-12.5
2.1,16,-15.5,-12.8
2.1,16,-15.2,-13
2.1,16,-14.9,-13.1
2.1,16,-14.5,-13
2.1,16,-14.1,-12.9
2.1,16,-13.6,-12.6
2.1,16,-13.1,-12.3
2.1,16,-12.7,-12
2.1,16,-12.4,-11.6
2.1,16,-12.2,-11.3
2.1,16,-12,-11.1
2.1,16,-11.9,-10.9
2.2,16,-11.8,-10.8
2.2,16,-11.6,-10.7
2.2,16,-11.3,-10.5
2.2,16,-10.9,-10.4
2.2,16,-10.3,-10.2
2.2,16,-9.7,-10
2.2,17,-9.1,-9.7
2.2,17,-8.6,-9.4
2.2,17,-8.2,-9.1
2.2,17,-7.7,-8.6
2.2,17,-7.2,-8.1
2.2,17,-6.8,-7.4
2.2,17,-6.3,-6.8
2.2,17,-5.8,-6.1
2.2,17,-5.4,-5.5
2.2,17,-5,-5.1
2.2,17,-4.6,-4.8
2.2,17,-4.3,-4.6
2.2,17,-4.1,-4.7
2.2,17,-3.9,-4.9
2.2,17,-3.8,-5.3
2.2,17,-3.7,-5.9
2.2,17,-3.8,-6.6
2.2,17,-3.9,-7.3
2.2,17,-4.1,-8
2.3,17,-4.2,-8.7
2.3,17,-4.4,-9.3
2.3,17,-4.5,-9.8
2.3,17,-4.6,-10.1
2.3,17,-4.6,-10.3
2.3,17,-4.8,-10.4
2.3,17,-4.9,-10.4
2.3,17,-5,-10.3
2.3,17,-5.1,-10
2.3,17,-5.2,-9.6
2.3,17,-5.1,-9.3
2.3,17,-5.1,-8.9
2.3,17,-5,-8.5
2.3,18,-4.9,-8.2
2.3,18,-4.9,-7.9
2.3,18,-4.9,-7.8
2.3,18,-5.1,-7.7
2.3,18,-5.5,-7.8
2.3,18,-6,-7.8
2.3,18,-6.6,-7.9
2.3,18,-7.5,-8.1
2.3,18,-8.4,-8.3
2.3,18,-9.5,-8.5
2.3,18,-10.5,-8.7
2.3,18,-11.5,-9.1
2.4,18,-12.3,-9.4
2.4,18,-13,-9.9
2.4,18,-13.6,-10.4
2.4,18,-14.1,-11
2.4,18,-14.5,-11.6
2.4,18,-14.8,-12.1
2.4,18,-15,-12.4
2.4,18,-15.1,-12.7
2.4,18,-15,-12.6
2.4,18,-14.6,-12.3
2.4,18,-13.9,-11.7
2.4,18,-13,-10.7
2.4,18,-11.8,-9.4
2.4,18,-10.5,-7.9
2.4,18,-9.1,-6.2
2.4,18,-7.6,-4.5
2.4,18,-6.1,-2.9
2.4,18,-4.7,-1.4
2.4,18,-3.4,-0.2
2.4,18,-2.1,0.8
2.4,19,-1,1.6
2.4,19,0,2.1
2.4,19,0.8,2.4
2.4,19,1.5,2.5
2.4,19,2.1,2.4
2.5,19,2.7,2.3
2.5,19,3.2,2.1
2.5,19,3.9,1.9
2.5,19,4.7,1.9
2.5,19,5.6,2
2.5,19,6.5,2.2
2.5,19,7.4,2.4
2.5,19,8.4,2.5
2.5,19,9.2,2.6
2.5,19,10.1,2.8
2.5,19,10.9,3
2.5,19,11.6,3.4
2.5,19,12.2,3.9
2.5,19,12.6,4.4
2.5,19,12.8,5
2.5,19,12.7,5.6
2.5,19,12.4,6.2
2.5,19,11.9,6.7
2.5,19,11.3,7.2
2.5,19,10.7,7.6
2.5,19,10.1,7.9
2.5,19,9.7,8
2.5,19,9.3,8
2.5,19,9.1,7.7
2.5,19,9.1,7.4
2.6,19,9.2,6.8
2.6,19,9.5,6.1
2.6,20,9.8,5.2
2.6,20,10,4.3
2.6,20,10.1,3.4
2.6,20,10,2.6
2.6,20,9.7,1.9
2.6,20,9.2,1.4
2.6,20,8.5,1.1
2.6,20,7.7,0.9
2.6,20,6.7,0.9
2.6,20,5.7,1.1
2.6,20,4.6,1.3
2.6,20,3.5,1.6
2.6,20,2.5,1.9
2.6,20,1.5,2.1
2.6,20,0.6,2.3
2.6,20,-0.1,2.4
2.6,20,-0.7,2.6
2.6,20,-1.1,2.7
2.6,20,-1.3,2.7
2.6,20,-1.4,2.8
2.6,20,-1.4,2.7
2.6,20,-1.2,2.5
2.6,20,-1,2.3
2.7,20,-0.8,1.8
2.7,20,-0.6,1.3
2.7,20,-0.4,0.8
2.7,20,-0.3,0.2
2.7,20,-0.1,-0.3
2.7,20,0.2,-0.6
2.7,20,0.5,-0.6
2.7,20,0.9,-0.5
2.7,20,1.5,-0.2
2.7,21,2.1,0.2
2.7,21,2.8,0.7
2.7,21,3.5,1.2
2.7,21,4.2,1.8
2.7,21,4.9,2.4
2.7,21,5.5,3
2.7,21,6,3.7
2.7,21,6.4,4.3
2.7,21,6.7,5
2.7,21,6.9,5.8
2.7,21,7.1,6.6
2.7,21,7.3,7.5
2.7,21,7.4,8.4
2.7,21,7.5,9.2
2.7,21,7.5,10.1
2.7,21,7.4,10.9
2.8,21,7.3,11.6
2.8,21,7,12.2
2.8,21,6.7,12.6
2.8,21,6.2,12.7
2.8,21,5.7,12.6
2.8,21,5.1,12.2
2.8,21,4.5,11.6
2.8,21,4,11
2.8,21,3.5,10.2
2.8,21,3.1,9.4
2.8,21,2.8,8.6
2.8,21,2.5,7.8
2.8,21,2.3,7
2.8,21,2.1,6.3
2.8,21,2.1,5.6
2.8,21,2.2,5
2.8,22,2.5,4.5
2.8,22,3.1,4.2
2.8,22,3.9,3.9
2.8,22,5,3.7
2.8,22,6.2,3.7
2.8,22,7.4,3.8
2.8,22,8.6,4
2.8,22,9.7,4.2
2.8,22,10.6,4.5
2.9,22,11.2,4.7
2.9,22,11.6,5
2.9,22,11.7,5.3
2.9,22,11.5,5.7
2.9,22,11.2,6.2
2.9,22,10.7,6.8
2.9,22,10.1,7.4
2.9,22,9.3,7.9
2.9,22,8.5,8.4
2.9,22,7.6,8.8
2.9,22,6.8,9
2.9,22,5.9,9.1
2.9,22,5.2,9
2.9,22,4.6,8.7
2.9,22,4.2,8.3
2.9,22,3.8,7.9
2.9,22,3.6,7.4
2.9,22,3.4,6.8
2.9,22,3.3,6.3
2.9,22,3.3,5.8
2.9,22,3.3,5.3
2.9,22,3.4,4.7
2.9,22,3.4,4.2
2.9,23,3.4,3.6
2.9,23,3.4,3.2
3,23,3.4,2.9
3,23,3.4,2.7
3,23,3.3,2.7
3,23,3.2,2.8
3,23,3.1,3
3,23,3,3.2
3,23,2.9,3.6
3,23,2.9,3.9
3,23,2.9,4.3
3,23,3,4.8
3,23,3.1,5.3
3,23,3.2,5.7
3,23,3.2,6
3,23,3.2,6.2
3,23,3.1,6.2
3,23,2.9,6
3,23,2.8,5.7
3,23,2.7,5.3
3,23,2.7,4.7
3,23,2.7,4.1
3,23,2.9,3.6
3,23,3.2,3.1
3,23,3.6,2.9
3,23,4,2.8
3,23,4.3,2.7
3.1,23,4.6,2.6
3.1,23,4.9,2.5
3.1,23,5,2.4
3.1,23,5,2.3
3.1,23,4.9,2.1
3.1,24,4.7,2
3.1,24,4.4,1.9
3.1,24,4.2,1.8
3.1,24,3.9,1.9
3.1,24,3.5,1.9
3.1,24,3.1,2
3.1,24,2.5,2.1
3.1,24,1.8,2.1
3.1,24,0.9,2.1
3.1,24,0,2
3.1,24,-0.9,1.8
3.1,24,-1.8,1.5
3.1,24,-2.4,1.3
3.1,24,-2.7,1.2
3.1,24,-2.8,1.2
3.1,24,-2.7,1.3
3.1,24,-2.3,1.5
3.1,24,-1.9,1.7
3.1,24,-1.3,2
3.1,24,-0.6,2.3
3.2,24,0.2,2.7
3.2,24,0.9,3
3.2,24,1.7,3.4
3.2,24,2.4,3.7
3.2,24,3.1,3.9
3.2,24,3.7,4
3.2,24,4.2,4
3.2,24,4.6,3.9
3.2,24,5,3.7
3.2,24,5.3,3.5
3.2,24,5.6,3.4
3.2,24,5.8,3.3
3.2,25,6,3.2
3.2,25,6.1,3.2
3.2,25,6.2,3.2
3.2,25,6.2,3.2
3.2,25,6,3.2
3.2,25,5.9,3.3
3.2,25,5.6,3.4
3.2,25,5.3,3.5
3.2,25,5,3.6
3.2,25,4.6,3.7
3.2,25,4.2,3.9
3.2,25,3.7,4.1
3.2,25,3.2,4.2
3.3,25,2.6,4.4
3.3,25,2.1,4.6
3.3,25,1.5,4.7
3.3,25,1,4.8
3.3,25,0.5,4.7
3.3,25,0.1,4.6
3.3,25,-0.2,4.5
3.3,25,-0.5,4.3
3.3,25,-0.7,4.2
3.3,25,-0.9,4.1
3.3,25,-1.2,4.1
3.3,25,-1.6,4.1
3.3,25,-1.9,4.1
3.3,25,-2.2,4.1
3.3,25,-2.4,4.1
3.3,25,-2.6,4.1
3.3,25,-2.7,4.1
3.3,25,-3,4.1
3.3,25,-3.2,4.1
3.3,26,-3.6,4
3.3,26,-3.9,4
3.3,26,-4.3,4
3.3,26,-4.8,3.9
3.3,26,-5.2,3.7
3.3,26,-5.5,3.4
3.4,26,-5.8,3
3.4,26,-5.9,2.5
3.4,26,-5.9,2
3.4,26,-5.7,1.5
3.4,26,-5.3,1.1
3.4,26,-4.7,0.7
3.4,26,-3.9,0.4
3.4,26,-3.1,0.3
3.4,26,-2.2,0.1
3.4,26,-1.3,0
3.4,26,-0.4,-0.1
3.4,26,0.6,-0.1
3.4,26,1.6,-0.1
3.4,26,2.7,0
3.4,26,3.8,0.3
3.4,26,4.9,0.5
3.4,26,5.8,0.8
3.4,26,6.5,1.1
3.4,26,7,1.4
3.4,26,7.2,1.6
3.4,26,7.2,1.8
3.4,26,6.9,2
3.4,26,6.4,2
3.4,26,5.8,2
3.4,26,5,1.9
3.5,26,4.2,1.8
3.5,27,3.4,1.6
3.5,27,2.6,1.4
3.5,27,1.8,1.1
3.5,27,1.1,0.9
3.5,27,0.6,0.6
3.5,27,0.1,0.3
3.5,27,-0.2,0
3.5,27,-0.4,-0.3
3.5,27,-0.4,-0.5
3.5,27,-0.3,-0.6
3.5,27,0,-0.6
3.5,27,0.3,-0.6
3.5,27,0.8,-0.6
3.5,27,1.3,-0.6
3.5,27,1.7,-0.6
3.5,27,2,-0.5
3.5,27,2.1,-0.4
3.5,27,2.1,-0.3
3.5,27,1.8,-0.1
3.5,27,1.3,0.1
3.5,27,0.7,0.2
3.5,27,-0.1,0.1
3.5,27,-1,0
3.5,27,-1.9,-0.1
3.6,27,-2.6,-0.3
3.6,27,-3.3,-0.4
3.6,27,-3.8,-0.5
3.6,27,-4.1,-0.6
3.6,27,-4.2,-0.6
3.6,27,-4.2,-0.6
3.6,27,-3.8,-0.5
3.6,27,-3.2,-0.4
3.6,28,-2.4,-0.2
3.6,28,-1.4,0
3.6,28,-0.4,0.2
3.6,28,0.5,0.3
3.6,28,1.4,0.4
3.6,28,2.2,0.5
3.6,28,2.8,0.6
3.6,28,3.3,0.7
3.6,28,3.5,0.8
3.6,28,3.5,0.9
3.6,28,3.4,0.9
3.6,28,3.2,0.9
3.6,28,3,0.8
3.6,28,2.8,0.7
3.6,28,2.5,0.7
3.6,28,2.3,0.7
3.6,28,2,0.8
3.7,28,1.8,1
3.7,28,1.6,1.1
3.7,28,1.5,1.2
3.7,28,1.4,1.4
3.7,28,1.4,1.5
3.7,28,1.4,1.6
3.7,28,1.4,1.7
3.7,28,1.6,1.7
3.7,28,1.8,1.7
3.7,28,2,1.6
3.7,28,2.3,1.6
3.7,28,2.6,1.6
3.7,28,2.9,1.6
3.7,28,3.2,1.8
3.7,28,3.6,2
3.7,29,3.9,2.1
3.7,29,4.1,2.3
3.7,29,4.4,2.4
3.7,29,4.6,2.5
3.7,29,4.9,2.6
3.7,29,5,2.7
3.7,29,5.1,2.7
3.7,29,5.2,2.7
3.7,29,5.2,2.6
3.7,29,5.2,2.5
3.8,29,5.1,2.5
3.8,29,5,2.4
3.8,29,4.8,2.2
3.8,29,4.5,2.1
3.8,29,4.1,1.9
3.8,29,3.7,1.7
3.8,29,3.3,1.4
3.8,29,2.9,1.2
3.8,29,2.5,0.9
3.8,29,2,0.6
3.8,29,1.5,0.4
3.8,29,1,0.2
3.8,29,0.4,0
3.8,29,-0.2,-0.2
3.8,29,-0.8,-0.4
3.8,29,-1.3,-0.5
3.8,29,-1.8,-0.7
3.8,29,-2.2,-0.8
3.8,29,-2.6,-0.9
3.8,29,-2.9,-0.9
3.8,29,-3.2,-0.9
3.8,29,-3.5,-0.9
3.8,30,-3.9,-0.9
3.8,30,-4.3,-0.8
3.8,30,-4.6,-0.8
3.9,30,-4.8,-0.7
3.9,30,-5,-0.5
3.9,30,-5.2,-0.4
3.9,30,-5.3,-0.3
3.9,30,-5.5,-0.4
3.9,30,-5.5,-0.6
3.9,30,-5.5,-0.9
3.9,30,-5.3,-1.3
3.9,30,-4.9,-1.7
3.9,30,-4.4,-2
3.9,30,-3.7,-2
3.9,30,-2.7,-1.8
3.9,30,-1.7,-1.3
3.9,30,-0.6,-0.6
3.9,30,0.4,0.2
3.9,30,1.3,1
3.9,30,2,1.9
3.9,30,2.6,2.6
3.9,30,2.9,3.2
3.9,30,3.1,3.6
3.9,30,3,3.8
3.9,30,2.8,3.8
3.9,30,2.3,3.7
3.9,30,1.7,3.5
3.9,30,0.9,3
4,30,-0.1,2.5
4,30,-1.1,1.9
4,30,-2.2,1.4
4,30,-3.3,0.8
4,31,-4.2,0.4
4,31,-4.9,0
4,31,-5.3,-0.2
4,31,-5.5,-0.4
4,31,-5.5,-0.4
4,31,-5.3,-0.2
4,31,-5,0
4,31,-4.6,0.3
4,31,-4,0.6
4,31,-3.3,1
4,31,-2.6,1.5
4,31,-1.8,1.9
4,31,-1,2.3
4,31,-0.2,2.6
4,31,0.7,2.7
4,31,1.4,2.7
4,31,2.2,2.5
4,31,2.8,2.3
4,31,3.4,2
4,31,4,1.7
4,31,4.5,1.5
4.1,31,5,1.3
4.1,31,5.5,1.2
4.1,31,5.9,1.2
4.1,31,6.4,1.2
4.1,31,6.8,1.3
4.1,31,7.3,1.5
4.1,31,7.6,1.6
4.1,31,7.9,1.8
4.1,31,8,1.9
4.1,31,7.9,1.8
4.1,31,7.7,1.7
4.1,32,7.3,1.6
4.1,32,6.8,1.4
4.1,32,6.1,1.2
4.1,32,5.2,1
4.1,32,4.3,0.7
4.1,32,3.2,0.5
4.1,32,2.2,0.3
4.1,32,1.1,0.1
4.1,32,0.2,0.1
4.1,32,-0.6,0.2
4.1,32,-1.2,0.3
4.1,32,-1.5,0.6
4.1,32,-1.6,1
4.1,32,-1.3,1.5
4.2,32,-0.8,2
4.2,32,0,2.5
4.2,32,0.9,2.9
4.2,32,1.9,3.2
4.2,32,3,3.3
4.2,32,3.9,3.3
4.2,32,4.7,3
4.2,32,5.4,2.6
4.2,32,5.9,2.1
4.2,32,6.3,1.5
4.2,32,6.5,0.9
4.2,32,6.6,0.4
4.2,32,6.6,-0.1
4.2,32,6.4,-0.4
4.2,32,6.1,-0.6
4.2,32,5.8,-0.6
4.2,32,5.3,-0.4
4.2,32,4.7,0
4.2,33,4,0.5
4.2,33,3.2,1.2
4.2,33,2.4,1.8
4.2,33,1.6,2.3
4.2,33,0.9,2.8
4.2,33,0.3,3.2
4.2,33,0,3.5
4.3,33,-0.2,3.7
4.3,33,-0.2,3.8
4.3,33,-0.1,3.8
4.3,33,0.1,3.6
4.3,33,0.4,3.4
4.3,33,0.7,3
4.3,33,0.9,2.6
4.3,33,1.1,2.2
4.3,33,1.1,1.7
4.3,33,1.1,1.3
4.3,33,0.9,0.9
4.3,33,0.7,0.7
4.3,33,0.5,0.6
4.3,33,0.4,0.5
4.3,33,0.2,0.5
4.3,33,0,0.5
4.3,33,-0.1,0.4
4.3,33,-0.3,0.3
4.3,33,-0.5,0.2
4.3,33,-0.7,-0.1
4.3,33,-0.9,-0.4
4.3,33,-1.1,-0.8
4.3,33,-1.4,-1.3
4.3,33,-1.6,-1.7
4.3,33,-1.9,-2.1
4.4,34,-2.2,-2.5
4.4,34,-2.5,-2.8
4.4,34,-2.6,-3
4.4,34,-2.6,-3.2
4.4,34,-2.5,-3.2
4.4,34,-2.3,-3.2
4.4,34,-2,-3.1
4.4,34,-1.7,-3
4.4,34,-1.2,-2.7
4.4,34,-0.8,-2.4
4.4,34,-0.3,-2
4.4,34,0.2,-1.6
4.4,34,0.7,-1.2
4.4,34,1.2,-0.7
4.4,34,1.6,-0.3
4.4,34,1.9,0.1
4.4,34,2.3,0.5
4.4,34,2.5,0.7
4.4,34,2.6,0.8
4.4,34,2.4,0.8
4.4,34,1.8,0.6
4.4,34,0.5,0.1
4.4,34,-1.4,-0.5
4.4,34,-4,-1.5
4.4,34,-7.4,-2.8
4.5,34,-11.4,-4.5
4.5,34,-16.2,-6.6
4.5,34,-21.5,-9.1
4.5,34,-27.5,-12
4.5,34,-33.9,-15.3
4.5,34,-40.7,-18.9
4.5,34,-47.8,-22.7
4.5,35,-55,-26.6
4.5,35,-62.2,-30.5
4.5,35,-69.2,-34
4.5,35,-76,-37.2
4.5,35,-82.4,-39.8
4.5,35,-88.2,-41.8
4.5,35,-93.5,-42.9
4.5,35,-98.1,-43.1
4.5,35,-102,-42.5
4.5,35,-105.2,-41
4.5,35,-107.5,-38.8
4.5,35,-109.1,-35.8
4.5,35,-109.8,-32.2
4.5,35,-109.8,-28.1
4.5,35,-108.9,-23.8
4.5,35,-107.2,-19.2
4.5,35,-104.6,-14.6
4.5,35,-101.2,-10
4.6,35,-96.9,-5.5
4.6,35,-91.9,-1.2
4.6,35,-86.2,2.9
4.6,35,-79.9,6.6
4.6,35,-73.2,10.1
4.6,35,-66.3,13.2
4.6,35,-59,16
4.6,35,-51.4,18.5
4.6,35,-43.5,20.8
4.6,35,-35.4,22.9
4.6,35,-27,24.7
4.6,35,-18.4,26.4
4.6,35,-9.6,27.9
4.6,35,-0.8,29.2
4.6,36,8,30.3
4.6,36,16.7,31.3
4.6,36,25.3,32
4.6,36,33.4,32.7
4.6,36,41.1,33.1
4.6,36,48.1,33.2
4.6,36,54.5,33.1
4.6,36,60.1,32.7
4.6,36,65,32
4.6,36,69.4,31.2
4.6,36,73.5,30.2
4.7,36,77.4,29.2
4.7,36,81.1,28.2
4.7,36,84.6,27.2
4.7,36,88.1,26.2
4.7,36,91.4,25.3
4.7,36,94.5,24.3
4.7,36,97.5,23.5
4.7,36,100.3,22.6
4.7,36,102.8,21.9
4.7,36,104.9,21.2
4.7,36,106.8,20.6
4.7,36,108.2,20.1
4.7,36,109.2,19.7
4.7,36,109.8,19.3
4.7,36,110.1,19
4.7,36,110,18.7
4.7,36,109.7,18.5
4.7,36,109.1,18.2
4.7,36,108.4,18
4.7,36,107.6,17.8
4.7,36,106.8,17.7
4.7,37,105.9,17.5
4.7,37,105,17.3
4.7,37,104,16.9
4.7,37,103,16.4
4.8,37,101.9,15.7
4.8,37,100.6,14.8
4.8,37,99.3,13.8
4.8,37,97.9,12.6
4.8,37,96.3,11.3
4.8,37,94.7,9.9
4.8,37,92.9,8.4
4.8,37,90.9,6.8
4.8,37,88.6,5.3
4.8,37,86.2,3.8
4.8,37,83.6,2.4
4.8,37,80.9,1
4.8,37,78,-0.2
4.8,37,75,-1.4
4.8,37,71.9,-2.5
4.8,37,68.8,-3.4
4.8,37,65.8,-4.2
4.8,37,62.9,-4.9
4.8,37,60.2,-5.4
4.8,37,57.6,-5.7
4.8,37,55.1,-6
4.8,37,52.8,-6.1
4.8,37,50.6,-6.2
4.8,37,48.5,-6.2
4.8,37,46.4,-6.3
4.9,37,44.4,-6.4
4.9,37,42.3,-6.7
4.9,37,40.2,-7.1
4.9,38,37.9,-7.6
4.9,38,35.5,-8.3
4.9,38,33.1,-9.1
4.9,38,30.5,-9.9
4.9,38,27.9,-10.8
4.9,38,25.2,-11.6
4.9,38,22.4,-12.3
4.9,38,19.7,-12.9
4.9,38,16.9,-13.2
4.9,38,14.1,-13.3
4.9,38,11.4,-13.1
4.9,38,8.7,-12.7
4.9,38,6.1,-12.3
4.9,38,3.7,-11.8
4.9,38,1.3,-11.5
4.9,38,-1.1,-11.2
4.9,38,-3.3,-11.2
4.9,38,-5.6,-11.3
4.9,38,-7.8,-11.6
4.9,38,-10.1,-12.1
4.9,38,-12.3,-12.8
4.9,38,-14.6,-13.7
5,38,-16.9,-14.8
5,38,-19.1,-16
5,38,-21.3,-17.3
5,38,-23.4,-18.6
5,38,-25.4,-19.9
5,38,-27.1,-21
5,38,-28.7,-21.8
5,38,-30.1,-22.4
5,38,-31.3,-22.7
5,38,-32.4,-22.7
5,39,-33.5,-22.3
5,39,-34.7,-21.7
5,39,-35.8,-20.7
5,39,-36.8,-19.5
5,39,-37.9,-18.2
5,39,-38.9,-16.7
5,39,-39.8,-15.3
5,39,-40.8,-13.9
5,39,-41.8,-12.7
5,39,-42.8,-11.7
5,39,-43.8,-10.9
5,39,-44.7,-10.4
5,39,-45.7,-10.1
5,39,-46.7,-10.1
5,39,-47.7,-10.2
5.1,39,-48.7,-10.4
5.1,39,-49.6,-10.6
5.1,39,-50.5,-10.9
5.1,39,-51.3,-11.1
5.1,39,-52,-11.4
5.1,39,-52.6,-11.8
5.1,39,-53.1,-12.1
5.1,39,-53.6,-12.4
5.1,39,-54,-12.7
5.1,39,-54.3,-12.9
5.1,39,-54.7,-13
5.1,39,-55.2,-13.1
5.1,39,-55.6,-13
5.1,39,-56.1,-13
5.1,39,-56.7,-12.8
5.1,39,-57.1,-12.5
5.1,39,-57.5,-12.1
5.1,40,-57.8,-11.6
5.1,40,-57.9,-11
5.1,40,-57.9,-10.3
5.1,40,-57.8,-9.5
5.1,40,-57.5,-8.7
5.1,40,-57.1,-8
5.1,40,-56.5,-7.4
5.1,40,-55.8,-6.7
5.2,40,-54.9,-5.9
5.2,40,-54,-5.1
5.2,40,-52.9,-4.3
5.2,40,-51.8,-3.5
5.2,40,-50.8,-2.7
5.2,40,-49.8,-2
5.2,40,-48.8,-1.3
5.2,40,-48,-0.6
5.2,40,-47.3,0
5.2,40,-46.7,0.6
5.2,40,-46.1,1.2
5.2,40,-45.6,1.7
5.2,40,-45.2,2.2
5.2,40,-45,2.6
5.2,40,-44.8,2.8
5.2,40,-44.9,2.9
5.2,40,-45,2.8
5.2,40,-45.2,2.7
5.2,40,-45.4,2.4
5.2,40,-45.5,2.1
5.2,40,-45.4,1.8
5.2,40,-45.2,1.5
5.2,40,-44.7,1.2
5.2,40,-44.1,1.1
5.2,41,-43.2,1
5.3,41,-42.2,1
5.3,41,-41.1,1.1
5.3,41,-39.9,1.2
5.3,41,-38.5,1.4
5.3,41,-37.1,1.7
5.3,41,-35.6,1.9
5.3,41,-34.2,2.1
5.3,41,-32.8,2.3
5.3,41,-31.5,2.5
5.3,41,-30.3,2.6
5.3,41,-29.2,2.8
5.3,41,-28.3,2.9
5.3,41,-27.5,3.1
5.3,41,-26.8,3.2
5.3,41,-26.3,3.3
5.3,41,-25.7,3.3
5.3,41,-25.2,3.4
5.3,41,-24.6,3.4
5.3,41,-24.1,3.3
5.3,41,-23.5,3.1
5.3,41,-22.9,3
5.3,41,-22.2,2.8
5.3,41,-21.5,2.6
5.3,41,-20.6,2.5
5.3,41,-19.6,2.3
5.4,41,-18.5,2.1
5.4,41,-17.3,1.9
5.4,41,-16.1,1.7
5.4,41,-15,1.4
5.4,41,-13.9,1.2
5.4,41,-12.9,1
5.4,42,-12.1,0.9
5.4,42,-11.5,0.9
5.4,42,-11,0.9
5.4,42,-10.7,1
5.4,42,-10.5,1.2
5.4,42,-10.4,1.3
5.4,42,-10.3,1.4
5.4,42,-10.3,1.5
5.4,42,-10.3,1.4
5.4,42,-10.4,1.3
5.4,42,-10.3,1.1
5.4,42,-10,1.1
5.4,42,-9.6,1.1
5.4,42,-9,1.3
5.4,42,-8.2,1.7
5.4,42,-7.1,2.2
5.4,42,-5.9,2.8
5.4,42,-4.4,3.5
5.4,42,-2.8,4.1
5.5,42,-1,4.7
5.5,42,0.8,5.3
5.5,42,2.7,5.6
5.5,42,4.6,5.9
5.5,42,6.4,5.9
5.5,42,8.2,5.9
5.5,42,9.8,5.8
5.5,42,11.2,5.7
5.5,42,12.5,5.7
5.5,42,13.5,5.7
5.5,42,14.3,5.8
5.5,42,14.9,5.9
5.5,42,15.4,6.1
5.5,43,15.6,6.3
5.5,43,15.6,6.5
5.5,43,15.5,6.5
5.5,43,15.2,6.5
5.5,43,14.9,6.3
5.5,43,14.4,6
5.5,43,13.9,5.6
5.5,43,13.4,5.2
5.5,43,12.9,4.9
5.5,43,12.4,4.6
5.5,43,12.1,4.4
5.5,43,11.9,4.2
5.6,43,11.8,4.1
5.6,43,11.8,4
5.6,43,11.9,4.1
5.6,43,12.3,4.3
5.6,43,12.7,4.5
5.6,43,13.2,4.8
5.6,43,13.7,5.1
5.6,43,14.3,5.4
5.6,43,15,5.6
5.6,43,15.7,5.9
5.6,43,16.3,6.2
5.6,43,16.9,6.4
5.6,43,17.3,6.6
5.6,43,17.6,6.8
5.6,43,17.8,6.9
5.6,43,17.9,7
5.6,43,17.7,7
5.6,43,17.5,6.8
5.6,43,17.2,6.5
5.6,43,16.9,6
5.6,44,16.5,5.4
5.6,44,16.3,4.6
5.6,44,16,3.8
5.6,44,15.8,2.9
5.6,44,15.6,2
5.7,44,15.4,1
5.7,44,15.2,0.1
5.7,44,15.1,-0.7
5.7,44,15.1,-1.4
5.7,44,15.2,-2
5.7,44,15.4,-2.3
5.7,44,15.6,-2.4
5.7,44,15.9,-2.4
5.7,44,16.3,-2.1
5.7,44,16.7,-1.6
5.7,44,17.2,-1.1
5.7,44,17.6,-0.5
5.7,44,18,0.1
5.7,44,18.5,0.7
5.7,44,18.9,1.2
5.7,44,19.3,1.6
5.7,44,19.6,1.9
5.7,44,19.8,2
5.7,44,19.9,1.8
5.7,44,19.9,1.6
5.7,44,19.8,1.2
5.7,44,19.6,0.8
5.7,44,19.3,0.3
5.7,44,19.1,-0.1
5.7,44,18.9,-0.5
5.8,44,18.7,-0.8
5.8,44,18.5,-1
5.8,45,18.3,-1.3
5.8,45,18,-1.5
5.8,45,17.7,-1.7
5.8,45,17.4,-1.8
5.8,45,17.1,-1.9
5.8,45,16.7,-2
5.8,45,16.3,-2
5.8,45,15.8,-2.1
5.8,45,15.2,-2.1
5.8,45,14.6,-2
5.8,45,13.8,-1.8
5.8,45,13.1,-1.5
5.8,45,12.2,-1.2
5.8,45,11.2,-0.9
5.8,45,10.2,-0.5
5.8,45,9.2,-0.2
5.8,45,8.3,0.2
5.8,45,7.5,0.5
5.8,45,6.9,0.7
5.8,45,6.5,1
5.8,45,6.3,1.2
5.8,45,6.4,1.3
5.8,45,6.7,1.5
5.9,45,7.2,1.6
5.9,45,7.8,1.7
5.9,45,8.5,1.8
5.9,45,9.3,1.8
5.9,45,10,1.8
5.9,45,10.7,1.7
5.9,45,11.2,1.4
5.9,45,11.6,1.1
5.9,45,11.8,0.8
5.9,46,11.7,0.5
5.9,46,11.5,0.2
5.9,46,11.1,0
5.9,46,10.4,-0.2
5.9,46,9.6,-0.3
5.9,46,8.8,-0.3
5.9,46,7.9,-0.3
5.9,46,7.1,-0.3
5.9,46,6.3,-0.3
5.9,46,5.6,-0.3
5.9,46,5.1,-0.2
5.9,46,4.6,0
5.9,46,4.3,0.2
5.9,46,4.1,0.5
5.9,46,4,0.8
5.9,46,4.1,1.1
6,46,4.2,1.3
6,46,4.3,1.5
6,46,4.5,1.5
6,46,4.6,1.4
6,46,4.6,1.1
6,46,4.5,0.6
6,46,4.4,0.2
6,46,4.2,-0.3
6,46,4,-0.6
6,46,3.9,-0.8
6,46,3.9,-0.9
6,46,3.9,-0.9
6,46,3.9,-0.7
6,46,4,-0.5
6,46,4.1,-0.2
6,46,4.2,0.2
6,47,4.2,0.6
6,47,4.3,1.1
6,47,4.2,1.6
6,47,4.2,2
6,47,4.1,2.4
6,47,3.9,2.6
6,47,3.6,2.6
6,47,3.3,2.3
6,47,2.9,1.8
6.1,47,2.5,1
6.1,47,2.1,0
6.1,47,1.6,-1
6.1,47,1.2,-2
6.1,47,0.9,-2.9
6.1,47,0.6,-3.6
6.1,47,0.3,-4.2
6.1,47,0.1,-4.5
6.1,47,0,-4.6
6.1,47,-0.1,-4.4
6.1,47,-0.1,-4
6.1,47,-0.1,-3.4
6.1,47,-0.1,-2.7
6.1,47,0,-2
6.1,47,-0.1,-1.1
6.1,47,-0.1,-0.4
6.1,47,-0.3,0.4
6.1,47,-0.5,1.1
6.1,47,-0.7,1.7
6.1,47,-1.1,2.2
6.1,47,-1.6,2.5
6.1,47,-2.1,2.7
6.1,47,-2.6,2.7
6.1,48,-3.1,2.6
6.1,48,-3.5,2.4
6.2,48,-3.8,2
6.2,48,-4.1,1.5
6.2,48,-4.4,0.8
6.2,48,-4.7,0
6.2,48,-5,-0.9
6.2,48,-5.4,-1.9
6.2,48,-5.8,-2.9
6.2,48,-6.3,-3.9
6.2,48,-6.7,-4.8
6.2,48,-7.1,-5.6
6.2,48,-7.2,-6.1
6.2,48,-7.2,-6.3
6.2,48,-6.9,-6.3
6.2,48,-6.4,-6.1
6.2,48,-5.7,-5.8
6.2,48,-5,-5.4
6.2,48,-4.2,-5
6.2,48,-3.5,-4.6
6.2,48,-2.7,-4.2
6.2,48,-2,-3.8
6.2,48,-1.3,-3.4
6.2,48,-0.7,-3
6.2,48,-0.2,-2.6
6.2,48,0.1,-2.3
6.2,48,0.3,-2.1
6.3,48,0.3,-1.9
6.3,48,0,-1.9
6.3,48,-0.3,-1.9
6.3,48,-0.8,-1.9
6.3,48,-1.3,-1.9
6.3,49,-1.9,-1.8
6.3,49,-2.3,-1.8
6.3,49,-2.8,-1.7
6.3,49,-3.2,-1.6
6.3,49,-3.5,-1.6
6.3,49,-3.9,-1.6
6.3,49,-4.3,-1.8
6.3,49,-4.6,-2
6.3,49,-5,-2.3
6.3,49,-5.3,-2.6
6.3,49,-5.5,-2.9
6.3,49,-5.7,-3.2
6.3,49,-5.8,-3.4
6.3,49,-5.8,-3.5
6.3,49,-5.8,-3.7
6.3,49,-5.7,-3.8
6.3,49,-5.6,-4
6.3,49,-5.4,-4.2
6.3,49,-5.2,-4.4
6.3,49,-5,-4.6
6.4,49,-4.7,-4.8
6.4,49,-4.4,-4.9
6.4,49,-4,-4.8
6.4,49,-3.6,-4.6
6.4,49,-3.1,-4.2
6.4,49,-2.5,-3.6
6.4,49,-1.9,-2.8
6.4,49,-1.3,-1.9
6.4,49,-0.7,-1.1
6.4,49,-0.2,-0.1
6.4,49,0.3,0.7
6.4,49,0.7,1.5
6.4,50,1.2,2.2
6.4,50,1.6,2.9
6.4,50,2.1,3.4
6.4,50,2.6,3.8
6.4,50,3.1,4.1
6.4,50,3.6,4.3
6.4,50,4,4.3
6.4,50,4.4,4.2
6.4,50,4.7,3.9
6.4,50,4.8,3.6
6.4,50,4.9,3.3
6.4,50,4.9,2.9
6.4,50,4.8,2.6
6.5,50,4.7,2.5
6.5,50,4.5,2.4
6.5,50,4.2,2.4
6.5,50,3.8,2.5
6.5,50,3.4,2.6
6.5,50,3,2.6
6.5,50,2.5,2.7
6.5,50,2,2.7
6.5,50,1.6,2.7
6.5,50,1.2,2.6
6.5,50,0.9,2.4
6.5,50,0.7,2.2
6.5,50,0.6,1.8
6.5,50,0.6,1.4
6.5,50,0.6,0.9
6.5,50,0.8,0.4
6.5,50,1,0
6.5,50,1.3,-0.4
6.5,50,1.7,-0.7
6.5,51,1.9,-0.9
6.5,51,2.1,-0.9
6.5,51,2.3,-0.7
6.5,51,2.4,-0.3
6.5,51,2.6,0.3
6.5,51,2.8,1
6.6,51,2.9,1.9
6.6,51,3,2.8
6.6,51,3.1,3.7
6.6,51,3.2,4.5
6.6,51,3.3,5.2
6.6,51,3.4,5.8
6.6,51,3.5,6.3
6.6,51,3.5,6.6
6.6,51,3.4,6.8
6.6,51,3.3,6.8
6.6,51,3.1,6.7
6.6,51,2.9,6.4
6.6,51,2.6,6
6.6,51,2.3,5.5
6.6,51,1.9,4.9
6.6,51,1.4,4.3
6.6,51,1,3.7
6.6,51,0.7,3.2
6.6,51,0.6,2.9
6.6,51,0.5,2.6
6.6,51,0.5,2.4
6.6,51,0.6,2.3
6.6,51,0.7,2.3
6.6,51,0.7,2.2
6.6,51,0.8,2.2
6.7,51,0.9,2.1
6.7,52,0.9,2.1
6.7,52,0.9,2
6.7,52,0.8,2
6.7,52,0.6,2
6.7,52,0.3,2
6.7,52,0,2.1
6.7,52,-0.2,2.2
6.7,52,-0.4,2.3
6.7,52,-0.5,2.5
6.7,52,-0.6,2.5
6.7,52,-0.5,2.5
6.7,52,-0.4,2.2
6.7,52,-0.3,1.9
6.7,52,-0.1,1.3
6.7,52,0.1,0.6
6.7,52,0.3,-0.1
6.7,52,0.5,-0.9
6.7,52,0.7,-1.6
6.7,52,0.9,-2.1
6.7,52,1,-2.5
6.7,52,1.1,-2.6
6.7,52,1.1,-2.6
6.7,52,1,-2.4
6.7,52,0.9,-2.1
6.8,52,0.7,-1.6
6.8,52,0.5,-1
6.8,52,0.1,-0.5
6.8,52,-0.3,0
6.8,52,-0.8,0.4
6.8,52,-1.4,0.7
6.8,52,-2,0.9
6.8,52,-2.6,0.9
6.8,53,-3.1,0.8
6.8,53,-3.5,0.6
6.8,53,-3.8,0.2
6.8,53,-4,-0.2
6.8,53,-4,-0.7
6.8,53,-3.9,-1.3
6.8,53,-3.7,-1.9
6.8,53,-3.5,-2.5
6.8,53,-3.2,-3.1
6.8,53,-2.9,-3.6
6.8,53,-2.6,-4.1
6.8,53,-2.4,-4.5
6.8,53,-2.2,-4.9
6.8,53,-2.2,-5.2
6.8,53,-2.3,-5.4
6.8,53,-2.4,-5.5
6.8,53,-2.5,-5.5
6.9,53,-2.6,-5.4
6.9,53,-2.7,-5.2
6.9,53,-2.8,-4.9
6.9,53,-2.8,-4.6
6.9,53,-2.6,-4.2
6.9,53,-2.4,-3.8
6.9,53,-2.1,-3.4
6.9,53,-1.8,-3
6.9,53,-1.4,-2.7
6.9,53,-0.9,-2.5
6.9,53,-0.5,-2.4
6.9,53,-0.1,-2.4
6.9,53,0.3,-2.7
6.9,53,0.7,-3.1
6.9,53,1.1,-3.6
6.9,54,1.5,-4.2
6.9,54,1.9,-4.8
6.9,54,2.1,-5.4
6.9,54,2.2,-5.9
6.9,54,2.2,-6.2
6.9,54,2,-6.5
6.9,54,1.6,-6.6
6.9,54,0.9,-6.7
6.9,54,0.1,-6.8
6.9,54,-0.9,-6.9
7,54,-2,-7
7,54,-3,-7
7,54,-3.7,-7
7,54,-4.2,-6.9
7,54,-4.3,-6.6
7,54,-4.1,-6.2
7,54,-3.6,-5.6
7,54,-2.8,-4.9
7,54,-1.9,-4.1
7,54,-0.8,-3.3
7,54,0.4,-2.5
7,54,1.6,-1.8
7,54,2.8,-1.2
7,54,3.9,-0.7
7,54,4.8,-0.2
7,54,5.5,0.2
7,54,5.8,0.6
7,54,5.9,1.1
7,54,5.7,1.6
7,54,5.2,2.1
7,54,4.5,2.7
7,54,3.6,3.2
7,55,2.7,3.8
7,55,1.6,4.3
7,55,0.6,4.7
7.1,55,-0.4,5.1
7.1,55,-1.3,5.4
7.1,55,-2,5.7
7.1,55,-2.6,6
7.1,55,-2.9,6.2
7.1,55,-3.1,6.5
7.1,55,-3.1,6.8
7.1,55,-3,7.1
7.1,55,-2.7,7.4
7.1,55,-2.3,7.6
7.1,55,-1.9,7.7
7.1,55,-1.4,7.7
7.1,55,-1.1,7.5
7.1,55,-0.7,7.3
7.1,55,-0.4,7
7.1,55,-0.2,6.7
7.1,55,-0.1,6.5
7.1,55,0,6.4
7.1,55,0,6.4
7.1,55,0.1,6.5
7.1,55,0.2,6.6
7.1,55,0.3,6.8
7.1,55,0.5,6.9
7.1,55,0.8,7
7.1,55,1,7
7.2,55,1.3,6.9
7.2,55,1.6,6.7
7.2,55,1.8,6.4
7.2,55,1.9,5.9
7.2,56,1.9,5.3
7.2,56,1.9,4.6
7.2,56,1.8,3.6
7.2,56,1.6,2.5
7.2,56,1.5,1.3
7.2,56,1.3,0
7.2,56,1.3,-1.2
7.2,56,1.3,-2.4
7.2,56,1.4,-3.6
7.2,56,1.6,-4.5
7.2,56,1.9,-5.2
7.2,56,2.1,-5.7
7.2,56,2.2,-5.9
7.2,56,2.2,-6
7.2,56,2.2,-5.8
7.2,56,2,-5.5
7.2,56,1.8,-5.1
7.2,56,1.6,-4.6
7.2,56,1.4,-3.9
7.2,56,1.2,-3.2
7.2,56,1.1,-2.5
7.3,56,1.1,-1.7
7.3,56,1.2,-1
7.3,56,1.3,-0.2
7.3,56,1.3,0.4
7.3,56,1.3,0.9
7.3,56,1.2,1.1
7.3,56,1,1
7.3,56,0.7,0.7
7.3,56,0.4,0.2
7.3,56,0,-0.5
7.3,56,-0.3,-1.2
7.3,57,-0.6,-2
7.3,57,-0.9,-2.8
7.3,57,-1.1,-3.4
7.3,57,-1.3,-4
7.3,57,-1.5,-4.4
7.3,57,-1.7,-4.8
7.3,57,-1.9,-5
7.3,57,-2.1,-5.1
7.3,57,-2.4,-5.2
7.3,57,-2.7,-5.1
7.3,57,-3,-4.9
7.3,57,-3.2,-4.5
7.3,57,-3.4,-4.1
7.3,57,-3.5,-3.6
7.4,57,-3.5,-3
7.4,57,-3.5,-2.6
7.4,57,-3.4,-2.2
7.4,57,-3.5,-2
7.4,57,-3.5,-1.9
7.4,57,-3.4,-1.8
7.4,57,-3.3,-1.6
7.4,57,-3.1,-1.4
7.4,57,-2.8,-1.1
7.4,57,-2.6,-0.7
7.4,57,-2.3,-0.2
7.4,57,-2,0.2
7.4,57,-1.7,0.6
7.4,57,-1.5,0.9
7.4,57,-1.3,1.2
7.4,57,-1.2,1.4
7.4,57,-1.1,1.6
7.4,57,-1.2,1.7
7.4,58,-1.3,1.8
7.4,58,-1.5,1.8
7.4,58,-1.7,1.8
7.4,58,-2.1,1.6
7.4,58,-2.4,1.2
7.4,58,-2.7,0.7
7.4,58,-3,0
7.5,58,-3.3,-0.8
7.5,58,-3.5,-1.6
7.5,58,-3.5,-2.3
7.5,58,-3.5,-3
7.5,58,-3.4,-3.5
7.5,58,-3.1,-3.8
7.5,58,-2.7,-3.9
7.5,58,-2.2,-3.9
7.5,58,-1.6,-3.7
7.5,58,-0.9,-3.5
7.5,58,-0.2,-3.2
7.5,58,0.7,-2.8
7.5,58,1.5,-2.4
7.5,58,2.3,-2
7.5,58,2.9,-1.6
7.5,58,3.5,-1.1
7.5,58,3.8,-0.7
7.5,58,3.9,-0.3
7.5,58,3.8,0.1
7.5,58,3.5,0.4
7.5,58,3.1,0.7
7.5,58,2.6,1
7.5,58,2,1.3
7.5,58,1.4,1.7
7.5,58,0.7,2.2
7.6,59,0,2.7
7.6,59,-0.6,3.3
7.6,59,-1.1,3.9
7.6,59,-1.4,4.5
7.6,59,-1.5,5.1
7.6,59,-1.4,5.5
7.6,59,-1.1,5.9
7.6,59,-0.8,6.1
7.6,59,-0.2,6.2
7.6,59,0.4,6.3
7.6,59,1.3,6.3
7.6,59,2.2,6.2
7.6,59,3.2,6.1
7.6,59,4.1,5.9
7.6,59,4.9,5.6
7.6,59,5.5,5.2
7.6,59,5.9,4.6
7.6,59,5.9,4
7.6,59,5.8,3.4
7.6,59,5.4,2.7
7.6,59,4.8,2.1
7.6,59,4.1,1.6
7.6,59,3.2,1
7.6,59,2.4,0.5
7.6,59,1.5,0.1
7.7,59,0.7,-0.2
7.7,59,0,-0.6
7.7,59,-0.7,-1.1
7.7,59,-1.4,-1.5
7.7,59,-2,-2
7.7,59,-2.2,-2.4
7.7,59,-1.8,-2.7
7.7,60,-0.4,-2.8
7.7,60,2.2,-2.7
7.7,60,6.1,-2.3
7.7,60,11.5,-1.6
7.7,60,18.2,-0.7
7.7,60,26.2,0.5
7.7,60,35.2,1.9
7.7,60,45.2,3.3
7.7,60,55.6,4.7
7.7,60,66.4,6.2
7.7,60,77.1,7.4
7.7,60,87.6,8.5
7.7,60,97.5,9.3
7.7,60,106.6,9.8
7.7,60,114.9,10
7.7,60,122.2,10.1
7.7,60,128.5,10
7.7,60,133.7,9.9
7.8,60,138,9.8
7.8,60,141.2,9.8
7.8,60,143.6,10.1
7.8,60,145,10.7
7.8,60,145.8,11.8
7.8,60,145.8,13.2
7.8,60,145.3,15.1
7.8,60,144.3,17.4
7.8,60,142.8,20.1
7.8,60,140.8,23.1
7.8,60,138.4,26.3
7.8,60,135.5,29.9
7.8,60,132.1,33.7
7.8,60,128.2,37.7
7.8,61,124,41.8
7.8,61,119.3,46
7.8,61,114.3,50.2
7.8,61,108.9,54.1
7.8,61,103.2,57.7
7.8,61,97.3,60.8
7.8,61,91,63.5
7.8,61,84.5,65.7
7.8,61,77.6,67.4
7.8,61,70.3,68.4
7.8,61,62.5,68.8
7.9,61,54.3,68.6
7.9,61,45.7,67.7
7.9,61,36.6,66.2
7.9,61,27.2,64.1
7.9,61,17.6,61.4
7.9,61,7.8,58.3
7.9,61,-2,54.7
7.9,61,-11.9,50.7
7.9,61,-21.7,46.3
7.9,61,-31.5,41.6
7.9,61,-41.1,36.7
7.9,61,-50.6,31.6
7.9,61,-60,26.4
7.9,61,-69.1,21.3
7.9,61,-78.1,16.1
7.9,61,-86.8,11.1
7.9,61,-95.2,6.1
7.9,61,-103.4,1.1
7.9,61,-111.3,-3.7
7.9,61,-119,-8.4
7.9,61,-126.4,-13
7.9,62,-133.5,-17.4
7.9,62,-140.4,-21.6
7.9,62,-147.2,-25.7
7.9,62,-153.7,-29.6
8,62,-160,-33.4
8,62,-166.1,-37.1
8,62,-171.9,-40.7
8,62,-177.3,-44.2
8,62,-182.4,-47.6
8,62,-187.1,-50.8
8,62,-191.4,-54
8,62,-195.4,-57
8,62,-198.9,-59.6
8,62,-201.9,-62
8,62,-204.4,-64
8,62,-206.3,-65.7
8,62,-207.8,-67.2
8,62,-208.9,-68.5
8,62,-209.4,-69.6
8,62,-209.4,-70.4
8,62,-209.1,-71.1
8,62,-208.3,-71.6
8,62,-207.1,-72
8,62,-205.5,-72.3
8,62,-203.6,-72.5
8,62,-201.4,-72.7
8,62,-198.8,-72.9
8,62,-195.9,-73.1
8,62,-192.7,-73.3
8.1,62,-189.3,-73.5
8.1,62,-185.7,-73.6
8.1,62,-181.9,-73.6
8.1,63,-178,-73.4
8.1,63,-173.9,-73.2
8.1,63,-169.6,-72.8
8.1,63,-165.3,-72.2
8.1,63,-160.9,-71.6
8.1,63,-156.4,-70.8
8.1,63,-151.9,-69.8
8.1,63,-147.3,-68.9
8.1,63,-142.8,-67.9
8.1,63,-138.2,-66.9
8.1,63,-133.5,-65.8
8.1,63,-128.6,-64.6
8.1,63,-123.4,-63.4
8.1,63,-118.2,-62.2
8.1,63,-112.9,-60.9
8.1,63,-107.6,-59.6
8.1,63,-102.3,-58.2
8.1,63,-97.2,-56.7
8.1,63,-92.1,-55.2
8.1,63,-87,-53.5
8.1,63,-82,-51.8
8.1,63,-77,-49.9
8.2,63,-71.9,-48
8.2,63,-66.8,-45.9
8.2,63,-61.6,-43.8
8.2,63,-56.4,-41.6
8.2,63,-51.1,-39.4
8.2,63,-45.9,-37.2
8.2,63,-40.6,-34.9
8.2,63,-35.4,-32.6
8.2,63,-30.3,-30.4
8.2,63,-25.2,-28.2
8.2,64,-20.1,-26.2
8.2,64,-15.1,-24.3
8.2,64,-10.2,-22.4
8.2,64,-5.3,-20.7
8.2,64,-0.5,-19
8.2,64,4.1,-17.3
8.2,64,8.6,-15.7
8.2,64,12.8,-14.2
8.2,64,16.9,-12.6
8.2,64,20.9,-11
8.2,64,24.9,-9.3
8.2,64,28.8,-7.6
8.2,64,32.7,-5.8
8.2,64,36.6,-4
8.2,64,40.4,-2.3
8.3,64,44.3,-0.5
8.3,64,48.2,1.2
8.3,64,52.2,2.9
8.3,64,56.1,4.7
8.3,64,59.9,6.3
8.3,64,63.5,8
8.3,64,66.9,9.5
8.3,64,70.2,10.9
8.3,64,73.2,12.3
8.3,64,76.2,13.7
8.3,64,79,15.1
8.3,64,81.7,16.5
8.3,64,84.3,17.9
8.3,64,86.9,19.2
8.3,64,89.3,20.4
8.3,64,91.6,21.5
8.3,64,93.7,22.5
8.3,65,95.6,23.4
8.3,65,97.3,24.1
8.3,65,98.9,24.7
8.3,65,100.5,25.3
8.3,65,102,25.9
8.3,65,103.6,26.4
8.3,65,105.2,27
8.3,65,106.9,27.7
8.4,65,108.6,28.3
8.4,65,110.4,29
8.4,65,112.2,29.8
8.4,65,113.9,30.6
8.4,65,115.6,31.4
8.4,65,117.1,32.3
8.4,65,118.3,33.2
8.4,65,119.4,34
8.4,65,120.2,34.8
8.4,65,120.6,35.5
8.4,65,120.8,36.1
8.4,65,120.7,36.6
8.4,65,120.3,37.2
8.4,65,119.6,37.7
8.4,65,118.8,38.3
8.4,65,117.8,38.9
8.4,65,116.7,39.6
8.4,65,115.5,40.4
8.4,65,114.2,41.3
8.4,65,112.8,42.1
8.4,65,111.3,42.9
8.4,65,109.8,43.6
8.4,65,108.4,44.2
8.4,65,107.2,44.7
8.4,66,106.1,44.9
8.5,66,105.1,44.9
8.5,66,104.2,44.6
8.5,66,103.5,44.1
8.5,66,102.9,43.5
8.5,66,102.3,42.8
8.5,66,101.9,42
8.5,66,101.4,41.3
8.5,66,100.9,40.5
8.5,66,100.2,39.8
8.5,66,99.3,39.1
8.5,66,98.2,38.3
8.5,66,96.9,37.5
8.5,66,95.3,36.7
8.5,66,93.6,35.9
8.5,66,91.6,35.1
8.5,66,89.6,34.3
8.5,66,87.5,33.6
8.5,66,85.5,33.1
8.5,66,83.7,32.6
8.5,66,82,32.4
8.5,66,80.6,32.4
8.5,66,79.4,32.5
8.5,66,78.3,32.7
8.5,66,77.4,33.1
8.5,66,76.5,33.5
8.6,66,75.7,33.9
8.6,66,75,34.2
8.6,66,74.4,34.5
8.6,66,73.9,34.6
8.6,66,73.4,34.7
8.6,66,73,34.7
8.6,67,72.4,34.7
8.6,67,71.7,34.4
8.6,67,70.8,34.1
8.6,67,69.5,33.6
8.6,67,67.9,32.9
8.6,67,66,32.2
8.6,67,63.9,31.3
8.6,67,61.6,30.4
8.6,67,59.1,29.4
8.6,67,56.7,28.5
8.6,67,54.1,27.5
8.6,67,51.4,26.5
8.6,67,48.7,25.5
8.6,67,46,24.7
8.6,67,43.2,23.9
8.6,67,40.4,23.2
8.6,67,37.5,22.7
8.6,67,34.6,22.3
8.6,67,31.7,21.9
8.7,67,28.8,21.5
8.7,67,25.8,21.1
8.7,67,23,20.7
8.7,67,20.2,20.1
8.7,67,17.6,19.4
8.7,67,15.1,18.5
8.7,67,12.9,17.6
8.7,67,10.9,16.5
8.7,67,9.2,15.5
8.7,67,7.7,14.5
8.7,67,6.5,13.6
8.7,67,5.5,12.8
8.7,67,4.7,12.1
8.7,68,4.1,11.6
8.7,68,3.5,11.2
8.7,68,2.9,10.9
8.7,68,2.2,10.7
8.7,68,1.5,10.5
8.7,68,0.7,10.3
8.7,68,-0.2,10.2
8.7,68,-1.2,10
8.7,68,-2.4,9.8
8.7,68,-3.6,9.6
8.7,68,-4.9,9.3
8.7,68,-6.4,8.9
8.8,68,-8,8.3
8.8,68,-9.7,7.6
8.8,68,-11.5,6.6
8.8,68,-13.3,5.5
8.8,68,-15.2,4.3
8.8,68,-17,3
8.8,68,-18.8,1.7
8.8,68,-20.4,0.4
8.8,68,-22,-0.9
8.8,68,-23.5,-2.3
8.8,68,-24.8,-3.6
8.8,68,-26,-4.8
8.8,68,-27.1,-6
8.8,68,-28.1,-7.1
8.8,68,-28.9,-8.1
8.8,68,-29.5,-8.9
8.8,68,-30,-9.6
8.8,68,-30.4,-10.1
8.8,68,-30.8,-10.5
8.8,68,-31.2,-10.8
8.8,69,-31.5,-11
8.8,69,-31.9,-11.1
8.8,69,-32.3,-11.1
8.8,69,-32.7,-11.1
8.8,69,-33.1,-11.1
8.9,69,-33.5,-11.2
8.9,69,-33.9,-11.3
8.9,69,-34.3,-11.6
8.9,69,-34.7,-11.9
8.9,69,-35.1,-12.2
8.9,69,-35.5,-12.5
8.9,69,-35.8,-12.8
8.9,69,-36.1,-13.1
8.9,69,-36.3,-13.5
8.9,69,-36.5,-13.9
8.9,69,-36.6,-14.4
8.9,69,-36.8,-14.9
8.9,69,-37,-15.5
8.9,69,-37.2,-16.2
8.9,69,-37.4,-16.8
8.9,69,-37.6,-17.3
8.9,69,-37.7,-17.8
8.9,69,-37.8,-18.2
8.9,69,-38,-18.5
8.9,69,-38.3,-18.6
8.9,69,-38.6,-18.7
8.9,69,-39,-18.6
8.9,69,-39.4,-18.4
8.9,69,-39.8,-18
8.9,69,-40.1,-17.5
9,69,-40.4,-16.9
9,69,-40.5,-16.3
9,70,-40.5,-15.8
9,70,-40.4,-15.4
9,70,-40.1,-15.1
9,70,-39.6,-14.9
9,70,-39,-14.7
9,70,-38.4,-14.6
9,70,-37.6,-14.5
9,70,-36.9,-14.4
9,70,-36.2,-14.4
9,70,-35.5,-14.5
9,70,-34.9,-14.6
9,70,-34.4,-14.9
9,70,-34.1,-15.2
9,70,-34,-15.6
9,70,-34,-16
9,70,-34.1,-16.6
9,70,-34.4,-17.1
9,70,-34.7,-17.5
9,70,-34.9,-17.7
9,70,-34.9,-17.8
9,70,-34.8,-17.8
9,70,-34.5,-17.6
9,70,-34,-17.3
9.1,70,-33.3,-17
9.1,70,-32.5,-16.6
9.1,70,-31.5,-16.1
9.1,70,-30.4,-15.6
9.1,70,-29.2,-15.1
9.1,70,-28,-14.7
9.1,70,-26.9,-14.3
9.1,70,-25.9,-13.9
9.1,70,-25,-13.4
9.1,71,-24.4,-12.8
9.1,71,-24.1,-12.3
9.1,71,-23.9,-11.9
9.1,71,-24,-11.6
9.1,71,-24.2,-11.4
9.1,71,-24.5,-11.2
9.1,71,-24.7,-11.2
9.1,71,-24.9,-11.1
9.1,71,-25,-11
9.1,71,-25,-10.9
9.1,71,-24.9,-10.9
9.1,71,-24.7,-10.8
9.1,71,-24.3,-10.6
9.1,71,-23.8,-10.4
9.1,71,-23.2,-10.1
9.1,71,-22.5,-9.7
9.2,71,-21.8,-9.2
9.2,71,-21,-8.7
9.2,71,-20.2,-8.1
9.2,71,-19.4,-7.5
9.2,71,-18.6,-6.9
9.2,71,-17.7,-6.5
9.2,71,-16.8,-6.1
9.2,71,-16,-5.9
9.2,71,-15.2,-5.8
9.2,71,-14.5,-5.9
9.2,71,-13.9,-6
9.2,71,-13.3,-6.3
9.2,71,-12.8,-6.5
9.2,71,-12.4,-6.7
9.2,71,-12,-6.8
9.2,71,-11.7,-6.9
9.2,72,-11.3,-6.7
9.2,72,-10.9,-6.5
9.2,72,-10.5,-6.1
9.2,72,-10,-5.7
9.2,72,-9.5,-5.1
9.2,72,-9,-4.6
9.2,72,-8.5,-4
9.2,72,-7.9,-3.4
9.2,72,-7.4,-2.7
9.3,72,-6.9,-2.2
9.3,72,-6.5,-1.6
9.3,72,-6.1,-1
9.3,72,-6,-0.5
9.3,72,-6,-0.1
9.3,72,-6.2,0.2
9.3,72,-6.4,0.5
9.3,72,-6.6,0.8
9.3,72,-6.5,1.2
9.3,72,-6.1,1.6
9.3,72,-5.5,2.1
9.3,72,-4.6,2.6
9.3,72,-3.6,3
9.3,72,-2.4,3.3
9.3,72,-1,3.4
9.3,72,0.3,3.4
9.3,72,1.7,3.4
9.3,72,2.9,3.3
9.3,72,4.1,3.3
9.3,72,5,3.3
9.3,72,5.8,3.3
9.3,72,6.3,3.4
9.3,72,6.5,3.6
9.3,73,6.6,3.9
9.3,73,6.5,4.2
9.4,73,6.2,4.6
9.4,73,5.8,4.9
9.4,73,5.3,5.1
9.4,73,4.8,5
9.4,73,4.3,4.8
9.4,73,4,4.5
9.4,73,3.8,4.1
9.4,73,3.8,3.6
9.4,73,3.9,3.1
9.4,73,4.1,2.5
9.4,73,4.4,1.8
9.4,73,4.7,1.2
9.4,73,5.1,0.7
9.4,73,5.5,0.2
9.4,73,5.9,-0.2
9.4,73,6.2,-0.4
9.4,73,6.4,-0.6
9.4,73,6.5,-0.8
9.4,73,6.6,-0.8
9.4,73,6.6,-0.8
9.4,73,6.6,-0.8
9.4,73,6.7,-0.7
9.4,73,6.8,-0.5
9.4,73,7,-0.4
9.4,73,7.1,-0.2
9.5,73,7.2,-0.1
9.5,73,7.2,0.1
9.5,73,7.1,0.2
9.5,73,7,0.3
9.5,73,6.7,0.6
9.5,74,6.4,0.9
9.5,74,6,1.4
9.5,74,5.5,1.8
9.5,74,4.9,2.3
9.5,74,4.3,2.6
9.5,74,3.7,2.7
9.5,74,3.2,2.7
9.5,74,2.8,2.5
9.5,74,2.4,2.2
9.5,74,2,1.8
9.5,74,1.8,1.4
9.5,74,1.6,0.9
9.5,74,1.5,0.5
9.5,74,1.5,0.2
9.5,74,1.6,0.1
9.5,74,1.7,0
9.5,74,1.9,0
9.5,74,2.2,0
9.5,74,2.5,0.1
9.5,74,2.7,0
9.6,74,3,0
9.6,74,3.2,-0.2
9.6,74,3.3,-0.4
9.6,74,3.3,-0.7
9.6,74,3.2,-1
9.6,74,3.1,-1.2
9.6,74,3,-1.4
9.6,74,3,-1.5
9.6,74,3.1,-1.6
9.6,74,3.2,-1.6
9.6,74,3.4,-1.6
9.6,74,3.6,-1.6
9.6,75,3.7,-1.6
9.6,75,3.7,-1.5
9.6,75,3.6,-1.4
9.6,75,3.4,-1.3
9.6,75,3,-1.1
9.6,75,2.6,-0.9
9.6,75,2.2,-0.7
9.6,75,1.8,-0.5
9.6,75,1.5,-0.4
9.6,75,1.3,-0.2
9.6,75,1.4,-0.1
9.6,75,1.6,0
9.6,75,2,0.1
9.7,75,2.6,0.1
9.7,75,3.2,0.1
9.7,75,3.8,0.1
9.7,75,4.4,-0.1
9.7,75,4.8,-0.2
9.7,75,5.1,-0.5
9.7,75,5.2,-0.8
9.7,75,5,-1.2
9.7,75,4.6,-1.5
9.7,75,4.1,-1.9
9.7,75,3.4,-2.2
9.7,75,2.7,-2.5
9.7,75,2,-2.8
9.7,75,1.3,-3
9.7,75,0.8,-3.2
9.7,75,0.4,-3.2
9.7,75,0.1,-3.2
9.7,75,0,-3
9.7,75,0,-2.7
9.7,76,0.1,-2.3
9.7,76,0.2,-1.7
9.7,76,0.3,-1.1
9.7,76,0.3,-0.5
9.7,76,0.2,0.1
9.7,76,0,0.6
9.8,76,-0.4,1
9.8,76,-0.9,1.3
9.8,76,-1.5,1.5
9.8,76,-2.2,1.7
9.8,76,-3,1.9
9.8,76,-3.9,2.1
9.8,76,-4.9,2.3
9.8,76,-5.9,2.4
9.8,76,-7,2.5
9.8,76,-8.1,2.5
9.8,76,-9,2.5
9.8,76,-9.8,2.5
9.8,76,-10.3,2.5
9.8,76,-10.6,2.5
9.8,76,-10.8,2.5
9.8,76,-10.7,2.5
9.8,76,-10.5,2.3
9.8,76,-10.1,2
9.8,76,-9.7,1.7
9.8,76,-9.2,1.3
9.8,76,-8.7,1
9.8,76,-8.2,0.8
9.8,76,-7.8,0.6
9.8,76,-7.5,0.4
9.8,76,-7.2,0.2
9.9,76,-7,0
9.9,77,-7,-0.1
9.9,77,-7,-0.2
9.9,77,-7.1,-0.2
9.9,77,-7.2,-0.2
9.9,77,-7.2,-0.1
9.9,77,-7.1,0.2
9.9,77,-6.8,0.5
9.9,77,-6.4,0.8
9.9,77,-5.9,1.2
9.9,77,-5.3,1.5
9.9,77,-4.7,1.8
9.9,77,-4.1,2.2
9.9,77,-3.4,2.7
9.9,77,-2.8,3.1
9.9,77,-2.2,3.4
9.9,77,-1.7,3.6
9.9,77,-1.3,3.6
9.9,77,-1,3.4
9.9,77,-0.7,3
9.9,77,-0.5,2.4
9.9,77,-0.4,1.7
9.9,77,-0.4,0.9
9.9,77,-0.3,0.1
9.9,77,-0.4,-0.8
10,77,-0.5,-1.6
10,77,-0.6,-2.4
10,77,-0.8,-3.1
10,77,-1,-3.7
10,77,-1.1,-4.1
10,77,-1.2,-4.4
10,77,-1,-4.4
10,77,-0.6,-4.3
10,78,-0.1,-4.1
10,78,0.6,-3.9
10,78,1.3,-3.7
10,78,2.1,-3.6
10,78,3,-3.6
10,78,3.7,-3.7
10,78,4.3,-3.9
10,78,4.6,-4.1
10,78,4.7,-4.4
10,78,4.5,-4.8
10,78,4,-5.2
10,78,3.3,-5.6
10,78,2.5,-6
10,78,1.6,-6.3
10,78,0.7,-6.5
10,78,-0.3,-6.7
10,78,-1.3,-6.8
10.1,78,-2.3,-6.8
10.1,78,-3.3,-6.7
10.1,78,-4.2,-6.6
10.1,78,-4.9,-6.4
10.1,78,-5.4,-6.1
10.1,78,-5.4,-5.6
10.1,78,-5.2,-5
10.1,78,-4.7,-4.4
10.1,78,-4.1,-3.7
10.1,78,-3.3,-3.1
10.1,78,-2.5,-2.4
10.1,78,-1.7,-1.7
10.1,78,-0.9,-1.1
10.1,78,-0.3,-0.5
10.1,78,0.2,0
10.1,79,0.5,0.4
10.1,79,0.6,0.7
10.1,79,0.5,0.9
10.1,79,0.2,1.1
10.1,79,-0.2,1.2
10.1,79,-0.6,1.3
10.1,79,-1.1,1.4
10.1,79,-1.5,1.5
10.1,79,-1.8,1.6
10.1,79,-2,1.6
10.2,79,-2.2,1.6
10.2,79,-2.2,1.7
10.2,79,-2,1.8
10.2,79,-1.7,2
10.2,79,-1.3,2.2
10.2,79,-0.9,2.4
10.2,79,-0.4,2.7
10.2,79,0,2.9
10.2,79,0.5,3.2
10.2,79,0.9,3.4
10.2,79,1.2,3.6
10.2,79,1.4,3.8
10.2,79,1.6,3.9
10.2,79,1.7,4
10.2,79,1.9,3.9
10.2,79,2,3.8
10.2,79,2.1,3.6
10.2,79,2.4,3.4
10.2,79,2.7,3.2
10.2,79,3.1,3
10.2,79,3.5,2.8
10.2,79,3.9,2.6
10.2,80,4.4,2.5
10.2,80,4.9,2.5
10.2,80,5.4,2.6
10.3,80,5.9,2.8
10.3,80,6.3,3
10.3,80,6.6,3.2
10.3,80,6.7,3.3
10.3,80,6.7,3.4
10.3,80,6.6,3.4
10.3,80,6.3,3.4
10.3,80,5.9,3.3
10.3,80,5.5,3.2
10.3,80,5,3.1
10.3,80,4.5,2.9
10.3,80,4.1,2.6
10.3,80,3.9,2.3
10.3,80,3.7,2
10.3,80,3.7,1.7
10.3,80,3.8,1.4
10.3,80,3.8,1.1
10.3,80,3.9,0.7
10.3,80,4,0.4
10.3,80,4,0.2
10.3,80,4.1,0
10.3,80,4.1,-0.1
10.3,80,4.1,-0.2
10.3,80,4.1,-0.1
10.3,80,4.1,0
10.4,80,3.9,0.2
10.4,80,3.5,0.4
10.4,80,3,0.6
10.4,80,2.4,0.9
10.4,81,1.7,1.2
10.4,81,0.9,1.5
10.4,81,0.2,1.9
10.4,81,-0.7,2.2
10.4,81,-1.4,2.5
10.4,81,-2.2,2.8
10.4,81,-2.8,2.9
10.4,81,-3.3,2.9
10.4,81,-3.6,2.9
10.4,81,-3.6,2.8
10.4,81,-3.3,2.7
10.4,81,-2.9,2.5
10.4,81,-2.3,2.3
10.4,81,-1.6,2
10.4,81,-0.9,1.5
10.4,81,-0.3,1
10.4,81,0.3,0.3
10.4,81,0.7,-0.4
10.4,81,1.2,-1
10.4,81,1.5,-1.6
10.4,81,1.8,-2.1
10.5,81,2.1,-2.5
10.5,81,2.3,-2.7
10.5,81,2.4,-2.8
10.5,81,2.5,-2.8
10.5,81,2.4,-2.6
10.5,81,2.3,-2.4
10.5,81,2,-2.1
10.5,81,1.6,-1.8
10.5,81,1.1,-1.5
10.5,81,0.7,-1.4
10.5,81,0.4,-1.3
10.5,82,0.3,-1.2
10.5,82,0.2,-1.1
10.5,82,0.4,-1.1
10.5,82,0.6,-1.1
10.5,82,0.9,-1.2
10.5,82,1.3,-1.2
10.5,82,1.8,-1.3
10.5,82,2.3,-1.4
10.5,82,2.7,-1.5
10.5,82,3.1,-1.7
10.5,82,3.2,-1.9
10.5,82,3.1,-2.1
10.5,82,2.8,-2.2
10.5,82,2.4,-2.3
10.6,82,1.8,-2.4
10.6,82,1.1,-2.3
10.6,82,0.3,-2.2
10.6,82,-0.5,-2.2
10.6,82,-1.2,-2.1
10.6,82,-2,-2
10.6,82,-2.6,-2
10.6,82,-3,-2
10.6,82,-3.2,-1.9
10.6,82,-3.2,-1.9
10.6,82,-2.9,-1.7
10.6,82,-2.5,-1.6
10.6,82,-1.9,-1.4
10.6,82,-1,-1.1
10.6,82,-0.1,-0.8
10.6,82,0.9,-0.5
10.6,82,1.8,-0.3
10.6,82,2.6,-0.3
10.6,83,3.1,-0.4
10.6,83,3.5,-0.7
10.6,83,3.6,-1.2
10.6,83,3.6,-2
10.6,83,3.3,-2.8
10.6,83,3,-3.7
10.6,83,2.5,-4.6
10.7,83,2,-5.4
10.7,83,1.5,-6.2
10.7,83,1,-6.8
10.7,83,0.4,-7.2
10.7,83,-0.1,-7.4
10.7,83,-0.6,-7.6
10.7,83,-1,-7.6
10.7,83,-1.3,-7.5
10.7,83,-1.5,-7.4
10.7,83,-1.5,-7.2
10.7,83,-1.3,-6.9
10.7,83,-1,-6.5
10.7,83,-0.7,-6
10.7,83,-0.3,-5.5
10.7,83,0,-5
10.7,83,0.2,-4.5
10.7,83,0.3,-4
10.7,83,0.4,-3.5
10.7,83,0.5,-3
10.7,83,0.6,-2.4
10.7,83,0.7,-1.7
10.7,83,0.8,-0.9
10.7,83,0.9,-0.2
10.7,83,1,0.5
10.7,83,1.1,1.1
10.8,84,1.2,1.6
10.8,84,1.3,2
10.8,84,1.3,2.3
10.8,84,1.4,2.4
10.8,84,1.4,2.5
10.8,84,1.5,2.4
10.8,84,1.4,2.2
10.8,84,1.4,2
10.8,84,1.3,1.8
10.8,84,1,1.5
10.8,84,0.7,1.3
10.8,84,0.3,1
10.8,84,-0.1,0.9
10.8,84,-0.6,0.8
10.8,84,-0.9,0.7
10.8,84,-1,0.8
10.8,84,-0.9,0.9
10.8,84,-0.7,1.1
10.8,84,-0.4,1.2
10.8,84,-0.1,1.5
10.8,84,0.4,1.8
10.8,84,0.9,2.2
10.8,84,1.4,2.8
10.8,84,1.9,3.5
10.8,84,2.4,4.3
10.9,84,2.9,5
10.9,84,3.4,5.8
10.9,84,3.9,6.4
10.9,84,4.2,6.9
10.9,84,4.5,7.3
10.9,84,4.7,7.4
10.9,84,4.9,7.4
10.9,85,4.9,7.2
10.9,85,4.9,7
10.9,85,4.8,6.7
10.9,85,4.4,6.2
10.9,85,3.7,5.7
10.9,85,2.9,5.2
10.9,85,1.9,4.7
10.9,85,0.7,4.2
10.9,85,-0.4,3.8
10.9,85,-1.5,3.4
10.9,85,-2.5,3.2
10.9,85,-3.3,3
10.9,85,-3.8,3.1
10.9,85,-4.2,3.2
10.9,85,-4.3,3.5
10.9,85,-4.1,3.8
10.9,85,-3.8,4.2
10.9,85,-3.3,4.6
11,85,-2.6,5
11,85,-1.9,5.4
11,85,-1.1,5.8
11,85,-0.3,6.3
11,85,0.4,6.8
11,85,1.1,7.3
11,85,1.7,7.6
11,85,2.2,7.8
11,85,2.5,7.7
11,85,2.7,7.6
11,85,2.7,7.3
11,85,2.5,6.9
11,85,2.1,6.4
11,85,1.6,5.9
11,86,1,5.4
11,86,0.3,4.9
11,86,-0.4,4.3
11,86,-1.1,3.8
11,86,-1.7,3.3
11,86,-2.1,2.8
11,86,-2.5,2.4
11,86,-2.7,2
11,86,-2.9,1.6
11,86,-2.9,1.3
11,86,-2.8,0.9
11.1,86,-2.6,0.6
11.1,86,-2.2,0.3
11.1,86,-1.7,0
11.1,86,-1.1,-0.2
11.1,86,-0.6,-0.3
11.1,86,0,-0.4
11.1,86,0.5,-0.4
11.1,86,1,-0.4
11.1,86,1.4,-0.3
11.1,86,1.8,-0.1
11.1,86,2.2,0.1
11.1,86,2.6,0.3
11.1,86,3.2,0.3
11.1,86,3.9,0.2
11.1,86,4.5,-0.1
11.1,86,4.9,-0.6
11.1,86,4.7,-1.4
11.1,86,3.8,-2.6
11.1,86,2,-4.1
11.1,86,-0.5,-6.1
11.1,86,-4.1,-8.5
11.1,87,-8.8,-11.5
11.1,87,-14.5,-14.9
11.1,87,-21.1,-19
11.1,87,-28.5,-23.5
11.2,87,-36.6,-28.4
11.2,87,-45.1,-33.8
11.2,87,-54,-39.5
11.2,87,-63.3,-45.4
11.2,87,-72.6,-51.5
11.2,87,-82,-57.6
11.2,87,-91.2,-63.6
11.2,87,-100,-69.2
11.2,87,-108.4,-74.5
11.2,87,-116.2,-79.4
11.2,87,-123.4,-83.6
11.2,87,-129.9,-87.1
11.2,87,-135.5,-89.8
11.2,87,-140.3,-91.6
11.2,87,-144.1,-92.4
11.2,87,-147,-92.3
11.2,87,-148.9,-91.1
11.2,87,-149.9,-89.1
11.2,87,-150,-86.1
11.2,87,-149.4,-82.4
11.2,87,-148,-78.1
11.2,87,-145.9,-73.1
11.2,87,-143.2,-67.6
11.2,87,-139.8,-61.7
11.2,87,-135.9,-55.5
11.3,87,-131.6,-49
11.3,87,-126.7,-42.4
11.3,87,-121.4,-35.8
11.3,88,-115.7,-29.3
11.3,88,-109.7,-22.9
11.3,88,-103.2,-16.7
11.3,88,-96.3,-10.7
11.3,88,-89,-4.8
11.3,88,-81.5,0.8
11.3,88,-73.8,6.1
11.3,88,-65.9,11.2
11.3,88,-58,16
11.3,88,-50.1,20.6
11.3,88,-42.3,24.8
11.3,88,-34.6,28.8
11.3,88,-26.8,32.6
11.3,88,-19.1,36.3
11.3,88,-11.3,39.8
11.3,88,-3.5,43.1
11.3,88,4.5,46.2
11.3,88,12.5,49.1
11.3,88,20.5,51.7
11.3,88,28.5,54.1
11.3,88,36.5,56.2
11.3,88,44.5,58.2
11.4,88,52.5,60.1
11.4,88,60.5,62
11.4,88,68.5,63.7
11.4,88,76.4,65.3
11.4,88,84.3,66.9
11.4,88,92.2,68.3
11.4,88,99.9,69.8
11.4,88,107.4,71.2
11.4,88,114.7,72.6
11.4,88,121.8,74.1
11.4,89,128.6,75.5
11.4,89,135,77.1
11.4,89,141.2,78.6
11.4,89,147,80.2
11.4,89,152.5,81.7
11.4,89,157.6,83.2
11.4,89,162.4,84.5
11.4,89,166.9,85.5
11.4,89,171,86.2
11.4,89,174.9,86.7
11.4,89,178.7,86.9
11.4,89,182.2,87
11.4,89,185.6,86.8
11.4,89,188.8,86.4
11.4,89,191.7,85.9
11.5,89,194.3,85.1
11.5,89,196.5,84.2
11.5,89,198.1,83.2
11.5,89,199.3,81.9
11.5,89,199.8,80.5
11.5,89,199.9,78.9
11.5,89,199.5,77.3
11.5,89,198.8,75.6
11.5,89,197.9,73.8
11.5,89,196.7,72
11.5,89,195.2,70.2
11.5,89,193.5,68.3
11.5,89,191.6,66.4
11.5,89,189.4,64.5
11.5,89,186.9,62.6
11.5,89,184.3,60.5
11.5,89,181.6,58.3
11.5,90,178.8,56.1
11.5,90,175.9,53.8
11.5,90,172.9,51.5
11.5,90,169.8,49.1
11.5,90,166.6,46.7
11.5,90,163.1,44.1
11.5,90,159.5,41.6
11.5,90,155.7,39
11.6,90,151.7,36.5
11.6,90,147.6,34
11.6,90,143.3,31.6
11.6,90,138.8,29.1
11.6,90,134.2,26.8
11.6,90,129.4,24.4
11.6,90,124.7,22.1
11.6,90,119.8,19.9
11.6,90,115.1,17.9
11.6,90,110.3,15.9
11.6,90,105.5,14.1
11.6,90,100.7,12.2
11.6,90,95.9,10.5
11.6,90,91.3,8.7
11.6,90,86.6,7
11.6,90,82.1,5.4
11.6,90,77.7,3.7
11.6,90,73.3,2
11.6,90,68.9,0.3
11.6,90,64.5,-1.5
11.6,90,60.1,-3.3
11.6,90,55.7,-5.1
11.6,90,51.4,-6.9
11.6,90,47,-8.5
11.6,91,42.6,-10.1
11.7,91,38.2,-11.6
11.7,91,33.6,-13.1
11.7,91,28.9,-14.6
11.7,91,24.1,-16
11.7,91,19,-17.4
11.7,91,13.8,-18.9
11.7,91,8.5,-20.4
11.7,91,3.1,-22
11.7,91,-2.5,-23.6
11.7,91,-8.1,-25.4
11.7,91,-13.6,-27.1
11.7,91,-19.1,-28.8
11.7,91,-24.5,-30.4
11.7,91,-29.8,-31.9
11.7,91,-34.8,-33.4
11.7,91,-39.4,-34.7
11.7,91,-43.8,-35.9
11.7,91,-47.9,-37
11.7,91,-51.7,-38
11.7,91,-55.4,-39
11.7,91,-58.8,-39.9
11.7,91,-62.2,-40.8
11.7,91,-65.4,-41.7
11.7,91,-68.6,-42.5
11.7,91,-71.7,-43.3
11.8,91,-74.8,-44.1
11.8,91,-77.7,-44.8
11.8,91,-80.5,-45.5
11.8,91,-83.1,-46.2
11.8,91,-85.7,-46.9
11.8,91,-88.1,-47.6
11.8,92,-90.5,-48.2
11.8,92,-93,-48.8
11.8,92,-95.6,-49.3
11.8,92,-98.3,-49.8
11.8,92,-101,-50.3
11.8,92,-103.8,-50.8
11.8,92,-106.6,-51.2
11.8,92,-109.3,-51.7
11.8,92,-111.9,-52
11.8,92,-114.2,-52.3
11.8,92,-116.2,-52.3
11.8,92,-117.9,-52.1
11.8,92,-119.2,-51.7
11.8,92,-120.1,-51
11.8,92,-120.8,-50.2
11.8,92,-121.2,-49.2
11.8,92,-121.5,-48.2
11.8,92,-121.6,-47.1
11.8,92,-121.5,-46
11.9,92,-121.4,-44.9
11.9,92,-121.2,-43.9
11.9,92,-120.9,-43
11.9,92,-120.6,-42.3
11.9,92,-120.2,-41.7
11.9,92,-119.9,-41.2
11.9,92,-119.6,-40.9
11.9,92,-119.2,-40.7
11.9,92,-118.9,-40.5
11.9,92,-118.6,-40.3
11.9,92,-118.3,-40.1
11.9,92,-117.9,-39.8
11.9,92,-117.5,-39.5
11.9,93,-116.9,-39.1
11.9,93,-116.3,-38.6
11.9,93,-115.8,-38.1
11.9,93,-115.2,-37.6
11.9,93,-114.7,-37.2
11.9,93,-114.2,-36.7
11.9,93,-113.6,-36.2
11.9,93,-113.1,-35.8
11.9,93,-112.6,-35.4
11.9,93,-112.2,-35.1
11.9,93,-111.8,-34.8
11.9,93,-111.5,-34.5
12,93,-111.2,-34.3
12,93,-110.9,-34
12,93,-110.5,-33.8
12,93,-109.9,-33.6
12,93,-108.9,-33.2
12,93,-107.7,-32.7
12,93,-106.2,-32.1
12,93,-104.3,-31.2
12,93,-102.3,-30.1
12,93,-100.1,-28.9
12,93,-97.7,-27.6
12,93,-95.1,-26.1
12,93,-92.5,-24.6
12,93,-89.8,-23.1
12,93,-87.1,-21.6
12,93,-84.4,-20.2
12,93,-81.8,-18.8
12,93,-79.2,-17.5
12,93,-76.6,-16.2
12,93,-74.1,-15
12,94,-71.6,-13.9
12,94,-69.2,-13
12,94,-67,-12.1
12,94,-64.9,-11.5
12,94,-63,-11
12.1,94,-61.4,-10.7
12.1,94,-60,-10.5
12.1,94,-58.8,-10.4
12.1,94,-57.8,-10.2
12.1,94,-56.9,-10
12.1,94,-56.1,-9.8
12.1,94,-55.3,-9.4
12.1,94,-54.4,-8.9
12.1,94,-53.3,-8.3
12.1,94,-52.1,-7.7
12.1,94,-50.6,-7
12.1,94,-48.9,-6.4
12.1,94,-47.1,-5.8
12.1,94,-45.1,-5.1
12.1,94,-43.1,-4.5
12.1,94,-40.9,-3.8
12.1,94,-38.7,-3.2
12.1,94,-36.3,-2.5
12.1,94,-34,-1.8
12.1,94,-31.5,-1.1
12.1,94,-29.1,-0.5
12.1,94,-26.8,-0.1
12.1,94,-24.5,0.2
12.1,94,-22.4,0.4
12.1,94,-20.3,0.5
12.2,94,-18.2,0.5
12.2,94,-16.2,0.5
12.2,95,-14.2,0.6
12.2,95,-12.2,0.8
12.2,95,-10.1,1
12.2,95,-8.1,1.4
12.2,95,-6.1,1.8
12.2,95,-4.1,2.3
12.2,95,-2.1,2.8
12.2,95,-0.2,3.4
12.2,95,1.7,3.9
12.2,95,3.3,4.4
12.2,95,4.8,4.8
12.2,95,6.1,5.3
12.2,95,7.1,5.8
12.2,95,7.9,6.3
12.2,95,8.5,6.8
12.2,95,8.9,7.3
12.2,95,9.2,7.8
12.2,95,9.6,8.4
12.2,95,10.1,9
12.2,95,10.6,9.7
12.2,95,11.2,10.3
12.2,95,11.9,10.9
12.2,95,12.7,11.6
12.3,95,13.5,12.3
12.3,95,14.5,13
12.3,95,15.6,13.8
12.3,95,16.8,14.6
12.3,95,18.1,15.4
12.3,95,19.5,16.3
12.3,95,21,17.1
12.3,95,22.6,17.8
12.3,95,24.1,18.5
12.3,96,25.6,19
12.3,96,27,19.4
12.3,96,28.4,19.7
12.3,96,29.6,19.9
12.3,96,30.6,19.9
12.3,96,31.4,19.9
12.3,96,32.1,19.7
12.3,96,32.6,19.5
12.3,96,33.1,19.3
12.3,96,33.5,19.1
12.3,96,33.9,18.8
12.3,96,34.5,18.6
12.3,96,35.1,18.5
12.3,96,35.9,18.4
12.3,96,36.7,18.3
12.3,96,37.5,18.2
12.4,96,38.3,18.2
12.4,96,39,18.1
12.4,96,39.6,18.1
12.4,96,40.1,18
12.4,96,40.6,17.9
12.4,96,41,17.8
12.4,96,41.3,17.6
12.4,96,41.5,17.3
12.4,96,41.6,16.9
12.4,96,41.7,16.4
12.4,96,41.7,16
12.4,96,41.7,15.5
12.4,96,41.7,15.1
12.4,96,41.7,14.7
12.4,96,41.6,14.4
12.4,96,41.4,14
12.4,97,41.2,13.6
12.4,97,40.9,13.3
12.4,97,40.6,12.9
12.4,97,40.4,12.5
12.4,97,40.1,12.2
12.4,97,39.8,11.9
12.4,97,39.6,11.6
12.4,97,39.3,11.5
12.4,97,38.8,11.4
12.5,97,38.4,11.4
12.5,97,37.9,11.5
12.5,97,37.4,11.6
12.5,97,37,11.7
12.5,97,36.5,11.8
12.5,97,35.9,11.9
12.5,97,35.3,12
12.5,97,34.7,11.9
12.5,97,34.2,11.9
12.5,97,33.6,11.8
12.5,97,33.2,11.6
12.5,97,32.8,11.4
12.5,97,32.5,11.1
12.5,97,32.2,10.8
12.5,97,32,10.5
12.5,97,32,10.2
12.5,97,32,10
12.5,97,32.2,9.7
12.5,97,32.4,9.3
12.5,97,32.6,9
12.5,97,32.8,8.5
12.5,97,32.8,8
12.5,97,32.8,7.3
12.5,98,32.5,6.6
12.5,98,32.2,5.9
12.6,98,31.6,5.2
12.6,98,30.9,4.4
12.6,98,30.1,3.7
12.6,98,29.2,3
12.6,98,28.2,2.5
12.6,98,27.3,2
12.6,98,26.4,1.6
12.6,98,25.5,1.4
12.6,98,24.8,1.3
12.6,98,24.3,1.2
12.6,98,23.8,1.3
12.6,98,23.4,1.3
12.6,98,23.1,1.3
12.6,98,22.8,1.4
12.6,98,22.5,1.5
12.6,98,22.3,1.6
12.6,98,22.2,1.8
12.6,98,22,2
12.6,98,21.9,2.3
12.6,98,21.8,2.7
12.6,98,21.6,3.1
12.6,98,21.5,3.4
12.6,98,21.2,3.7
12.6,98,20.9,3.9
12.6,98,20.4,3.9
12.7,98,19.9,3.7
12.7,98,19.4,3.4
12.7,98,18.8,3
12.7,98,18.2,2.4
12.7,98,17.5,1.9
12.7,99,16.7,1.3
12.7,99,15.9,0.7
12.7,99,14.9,0.2
12.7,99,13.8,-0.2
12.7,99,12.6,-0.6
12.7,99,11.4,-1
12.7,99,10.2,-1.4
12.7,99,9.1,-1.7
12.7,99,8.2,-2.1
12.7,99,7.5,-2.3
12.7,99,7,-2.6
12.7,99,6.6,-2.8
12.7,99,6.4,-2.9
12.7,99,6.3,-2.9
12.7,99,6.3,-2.8
12.7,99,6.3,-2.6
12.7,99,6.4,-2.1
12.7,99,6.5,-1.6
12.7,99,6.7,-0.9
12.7,99,6.8,-0.2
12.8,99,6.9,0.5
12.8,99,7,1.2
12.8,99,7.1,1.9
12.8,99,7.2,2.5
12.8,99,7.2,3
12.8,99,7.1,3.4
12.8,99,7,3.6
12.8,99,6.9,3.6
12.8,99,6.8,3.5
12.8,99,6.8,3.3
12.8,99,6.9,2.9
12.8,99,6.9,2.5
12.8,100,7,2.1
12.8,100,6.9,1.6
12.8,100,6.9,1.2
12.8,100,6.7,0.8
12.8,100,6.3,0.5
12.8,100,5.7,0.1
12.8,100,4.9,-0.2
12.8,100,4,-0.6
12.8,100,3.1,-1
12.8,100,2.2,-1.4
12.8,100,1.5,-1.7
12.8,100,0.8,-1.8
12.8,100,0.4,-1.9
12.9,100,0.1,-1.8
12.9,100,-0.1,-1.6
12.9,100,-0.2,-1.4
12.9,100,-0.2,-1.1
12.9,100,-0.1,-0.7
12.9,100,0.1,-0.3
12.9,100,0.3,0.1
12.9,100,0.4,0.5
12.9,100,0.5,1
12.9,100,0.5,1.6
12.9,100,0.4,2.3
12.9,100,0.3,3
12.9,100,0.1,3.9
12.9,100,-0.1,4.7
12.9,100,-0.4,5.5
12.9,100,-0.7,6.2
12.9,100,-1,6.7
12.9,100,-1.3,7
12.9,100,-1.5,7.1
12.9,101,-1.7,7
12.9,101,-1.9,6.7
12.9,101,-2,6.3
12.9,101,-2,5.8
12.9,101,-2.1,5.3
12.9,101,-2.2,4.7
13,101,-2.2,4.2
13,101,-2.3,3.8
13,101,-2.2,3.5
13,101,-2.2,3.2
13,101,-2.1,3.1
13,101,-2,2.9
13,101,-1.9,2.7
13,101,-1.7,2.5
13,101,-1.5,2.3
13,101,-1.2,2
13,101,-0.8,1.7
13,101,-0.3,1.4
13,101,0.2,1.2
13,101,0.7,1.1
13,101,1,1
13,101,1.3,1
13,101,1.3,1.1
13,101,1.3,1.2
13,101,1.1,1.5
13,101,0.8,1.9
13,101,0.5,2.3
13,101,0.1,2.7
13,101,-0.4,3.1
13,101,-0.8,3.4
13,101,-1.2,3.6
13.1,101,-1.5,3.6
13.1,102,-1.6,3.6
13.1,102,-1.7,3.5
13.1,102,-1.6,3.3
13.1,102,-1.6,3
13.1,102,-1.6,2.6
13.1,102,-1.7,2
13.1,102,-1.9,1.4
13.1,102,-2.2,0.7
13.1,102,-2.5,-0.1
13.1,102,-2.8,-0.9
13.1,102,-3.3,-1.7
13.1,102,-3.8,-2.6
13.1,102,-4.5,-3.4
13.1,102,-5.2,-4.3
13.1,102,-6,-5
13.1,102,-6.7,-5.7
13.1,102,-7.3,-6.1
13.1,102,-7.8,-6.3
13.1,102,-8.1,-6.3
13.1,102,-8.2,-6.2
13.1,102,-8,-5.9
13.1,102,-7.7,-5.4
13.1,102,-7.2,-4.9
13.1,102,-6.7,-4.3
13.2,102,-6,-3.7
13.2,102,-5.5,-3.1
13.2,102,-5,-2.5
13.2,102,-4.6,-2.1
13.2,102,-4.3,-1.8
13.2,102,-4.1,-1.7
13.2,102,-4,-1.7
13.2,102,-3.9,-1.9
13.2,103,-3.8,-2.2
13.2,103,-3.6,-2.7
13.2,103,-3.5,-3.2
13.2,103,-3.5,-3.7
13.2,103,-3.3,-4.3
13.2,103,-3.2,-4.7
13.2,103,-3,-5.1
13.2,103,-2.8,-5.3
13.2,103,-2.3,-5.3
13.2,103,-1.8,-5.1
13.2,103,-1.1,-4.7
13.2,103,-0.4,-4.1
13.2,103,0.3,-3.4
13.2,103,0.8,-2.7
13.2,103,1.3,-2
13.2,103,1.7,-1.3
13.2,103,1.9,-0.7
13.3,103,2,-0.2
13.3,103,1.9,0.3
13.3,103,1.6,0.6
13.3,103,1.2,0.9
13.3,103,0.8,1
13.3,103,0.3,1
13.3,103,-0.2,0.9
13.3,103,-0.7,0.6
13.3,103,-1.2,0.3
13.3,103,-1.8,-0.2
13.3,103,-2.3,-0.7
13.3,103,-2.8,-1.1
13.3,103,-3.1,-1.5
13.3,103,-3.3,-1.9
13.3,103,-3.4,-2.1
13.3,104,-3.5,-2.2
13.3,104,-3.5,-2.2
13.3,104,-3.5,-2.1
13.3,104,-3.6,-1.9
13.3,104,-3.6,-1.6
13.3,104,-3.6,-1.3
13.3,104,-3.4,-1
13.3,104,-3.1,-0.7
13.3,104,-2.7,-0.5
13.3,104,-2.2,-0.3
13.4,104,-1.7,-0.2
13.4,104,-1.3,-0.2
13.4,104,-0.9,-0.3
13.4,104,-0.6,-0.5
13.4,104,-0.5,-0.8
13.4,104,-0.5,-1.1
13.4,104,-0.7,-1.5
13.4,104,-0.8,-1.9
13.4,104,-1,-2.3
13.4,104,-1.1,-2.6
13.4,104,-1.2,-2.8
13.4,104,-1.1,-3
13.4,104,-1,-3
13.4,104,-0.8,-2.9
13.4,104,-0.5,-2.7
13.4,104,-0.2,-2.4
13.4,104,0,-2.1
13.4,104,0.3,-1.8
13.4,104,0.6,-1.5
13.4,104,0.8,-1.2
13.4,104,1,-0.9
13.4,104,1.1,-0.7
13.4,105,1.2,-0.6
13.4,105,1.1,-0.5
13.4,105,1.1,-0.4
13.5,105,1,-0.4
13.5,105,0.9,-0.4
13.5,105,0.8,-0.4
13.5,105,0.7,-0.5
13.5,105,0.6,-0.7
13.5,105,0.5,-0.9
13.5,105,0.5,-1.2
13.5,105,0.6,-1.6
13.5,105,0.6,-2.1
13.5,105,0.6,-2.6
13.5,105,0.6,-3.2
13.5,105,0.6,-3.7
13.5,105,0.8,-4
13.5,105,1.1,-4.2
13.5,105,1.5,-4.2
13.5,105,1.9,-4.1
13.5,105,2.4,-3.8
13.5,105,2.7,-3.5
13.5,105,2.9,-3.2
13.5,105,2.9,-3
13.5,105,2.8,-2.8
13.5,105,2.6,-2.6
13.5,105,2.3,-2.4
13.5,105,1.9,-2.3
13.5,105,1.3,-2.1
13.6,105,0.7,-2
13.6,105,-0.1,-1.8
13.6,105,-0.8,-1.5
13.6,105,-1.4,-1.2
13.6,106,-2,-0.9
13.6,106,-2.4,-0.7
13.6,106,-2.8,-0.6
13.6,106,-3.2,-0.7
13.6,106,-3.4,-0.9
13.6,106,-3.4,-1.1
13.6,106,-3.1,-1.2
13.6,106,-2.6,-1.3
13.6,106,-1.9,-1.4
13.6,106,-1.1,-1.3
13.6,106,-0.1,-1.2
13.6,106,0.9,-1.1
13.6,106,1.8,-0.8
13.6,106,2.7,-0.5
13.6,106,3.4,-0.3
13.6,106,4,0
13.6,106,4.5,0.2
13.6,106,5,0.4
13.6,106,5.3,0.7
13.6,106,5.7,1
13.6,106,5.9,1.4
13.7,106,6,1.8
13.7,106,6.1,2.2
13.7,106,6,2.7
13.7,106,5.8,3.2
13.7,106,5.5,3.7
13.7,106,5.2,4.1
13.7,106,4.9,4.6
13.7,106,4.7,5.1
13.7,106,4.4,5.6
13.7,106,4.3,6
13.7,106,4.2,6.4
13.7,107,4.2,6.8
13.7,107,4.2,7
13.7,107,4.1,7.2
13.7,107,3.8,7.2
13.7,107,3.5,7.2
13.7,107,3,7.1
13.7,107,2.4,6.8
13.7,107,1.7,6.5
13.7,107,1,6.2
13.7,107,0.2,5.8
13.7,107,-0.5,5.4
13.7,107,-1.1,5.1
13.7,107,-1.7,4.8
13.7,107,-2.1,4.5
13.8,107,-2.5,4.3
13.8,107,-2.7,4.1
13.8,107,-2.7,3.9
13.8,107,-2.5,3.8
13.8,107,-2.1,3.9
13.8,107,-1.5,4
13.8,107,-0.7,4.3
13.8,107,0.2,4.7
13.8,107,1,5.1
13.8,107,1.9,5.5
13.8,107,2.6,5.7
13.8,107,3.3,5.8
13.8,107,3.8,5.8
13.8,107,4.2,5.7
13.8,107,4.5,5.4
13.8,107,4.7,5
13.8,107,4.9,4.5
13.8,107,5,4
13.8,108,5.1,3.3
13.8,108,5.1,2.6
13.8,108,5.2,2
13.8,108,5.3,1.3
13.8,108,5.4,0.6
13.8,108,5.4,-0.1
13.8,108,5.5,-0.6
13.9,108,5.6,-1.1
13.9,108,5.7,-1.4
13.9,108,5.8,-1.6
13.9,108,5.8,-1.6
13.9,108,5.8,-1.6
13.9,108,5.6,-1.4
13.9,108,5.3,-1.1
13.9,108,4.8,-0.8
13.9,108,4.3,-0.4
13.9,108,3.6,0
13.9,108,2.8,0.4
13.9,108,1.9,0.7
13.9,108,0.7,0.8
13.9,108,-0.7,0.9
13.9,108,-2.2,0.8
13.9,108,-3.8,0.5
13.9,108,-5.3,0.1
13.9,108,-6.7,-0.4
13.9,108,-7.8,-0.9
13.9,108,-8.7,-1.4
13.9,108,-9.2,-1.9
13.9,108,-9.5,-2.4
13.9,108,-9.5,-2.8
13.9,108,-9.2,-3.2
13.9,108,-8.8,-3.5
14,109,-8.2,-3.8
14,109,-7.4,-4
14,109,-6.7,-4.2
14,109,-5.9,-4.4
14,109,-5.1,-4.5
14,109,-4.5,-4.6
14,109,-4,-4.6
14,109,-3.7,-4.6
14,109,-3.4,-4.4
14,109,-3.3,-4.3
14,109,-3.2,-4.1
14,109,-3.3,-3.9
14,109,-3.5,-3.7
14,109,-3.7,-3.5
14,109,-3.9,-3.3
14,109,-4.2,-3.1
14,109,-4.3,-2.8
14,109,-4.4,-2.5
14,109,-4.4,-2.1
14,109,-4.2,-1.7
14,109,-4,-1.4
14,109,-3.8,-1
14,109,-3.5,-0.7
14,109,-3.2,-0.4
14,109,-2.9,-0.2
14.1,109,-2.7,0
14.1,109,-2.6,0.1
14.1,109,-2.5,0.3
14.1,109,-2.5,0.4
14.1,109,-2.6,0.6
14.1,109,-2.7,0.7
14.1,109,-2.8,0.9
14.1,110,-2.9,1.1
14.1,110,-3.1,1.3
14.1,110,-3.2,1.5
14.1,110,-3.3,1.6
14.1,110,-3.4,1.6
14.1,110,-3.5,1.6
14.1,110,-3.5,1.6
14.1,110,-3.5,1.5
14.1,110,-3.4,1.3
14.1,110,-3.1,1.2
14.1,110,-2.8,1
14.1,110,-2.4,0.9
14.1,110,-1.9,0.7
14.1,110,-1.6,0.5
14.1,110,-1.3,0.3
14.1,110,-1.2,0.1
14.1,110,-1.2,-0.1
14.1,110,-1.3,-0.2
14.2,110,-1.5,-0.4
14.2,110,-1.9,-0.6
14.2,110,-2.4,-0.7
14.2,110,-2.9,-0.7
14.2,110,-3.4,-0.7
14.2,110,-3.9,-0.5
14.2,110,-4.3,-0.3
14.2,110,-4.8,0
14.2,110,-5.1,0.3
14.2,110,-5.4,0.7
14.2,110,-5.4,1
14.2,110,-5.2,1.3
14.2,110,-4.8,1.6
14.2,110,-4.1,1.8
14.2,111,-3.3,1.9
14.2,111,-2.4,1.8
14.2,111,-1.4,1.6
14.2,111,-0.5,1.2
14.2,111,0.2,0.7
14.2,111,0.8,-0.1
14.2,111,1.1,-1.1
14.2,111,1.1,-2.2
14.2,111,0.9,-3.3
14.2,111,0.4,-4.5
14.2,111,-0.3,-5.7
14.3,111,-1,-6.6
14.3,111,-1.8,-7.4
14.3,111,-2.6,-7.9
14.3,111,-3.3,-8.2
14.3,111,-3.9,-8.3
14.3,111,-4.4,-8
14.3,111,-4.7,-7.6
14.3,111,-4.8,-7.1
14.3,111,-4.8,-6.4
14.3,111,-4.7,-5.6
14.3,111,-4.5,-4.9
14.3,111,-4.4,-4.1
14.3,111,-4.2,-3.4
14.3,111,-4,-2.7
14.3,111,-3.8,-2
14.3,111,-3.6,-1.4
14.3,111,-3.3,-0.9
14.3,111,-2.9,-0.4
14.3,111,-2.5,-0.1
14.3,111,-2,0
14.3,111,-1.4,0.1
14.3,112,-0.8,0
14.3,112,-0.2,-0.3
14.3,112,0.5,-0.5
14.3,112,1,-0.8
14.4,112,1.5,-1.1
14.4,112,1.9,-1.3
14.4,112,2.2,-1.4
14.4,112,2.4,-1.4
14.4,112,2.5,-1.3
14.4,112,2.4,-1.1
14.4,112,2.4,-0.8
14.4,112,2.3,-0.5
14.4,112,2.3,0
14.4,112,2.4,0.6
14.4,112,2.5,1.3
14.4,112,2.8,2.2
14.4,112,3.1,3
14.4,112,3.5,3.9
14.4,112,3.9,4.6
14.4,112,4.1,5.3
14.4,112,4.3,5.8
14.4,112,4.3,6.1
14.4,112,4.1,6.2
14.4,112,3.8,6.1
14.4,112,3.3,5.9
14.4,112,2.6,5.4
14.4,112,1.6,4.7
14.4,112,0.4,3.9
14.4,112,-0.9,3
14.5,112,-2.3,2.2
14.5,112,-3.6,1.4
14.5,112,-4.8,0.6
14.5,113,-5.8,0
14.5,113,-6.6,-0.5
14.5,113,-7,-0.9
14.5,113,-7.2,-1.2
14.5,113,-7.2,-1.6
14.5,113,-7,-1.9
14.5,113,-6.6,-2.1
14.5,113,-6,-2.3
14.5,113,-5.3,-2.4
14.5,113,-4.5,-2.4
14.5,113,-3.7,-2.4
14.5,113,-2.8,-2.2
14.5,113,-2.1,-2.1
14.5,113,-1.4,-1.9
14.5,113,-0.8,-1.7
14.5,113,-0.3,-1.5
14.5,113,0.2,-1.3
14.5,113,0.6,-1.1
14.5,113,1,-0.9
14.5,113,1.3,-0.7
14.5,113,1.5,-0.6
14.5,113,1.7,-0.5
14.6,113,1.8,-0.4
14.6,113,1.7,-0.4
14.6,113,1.5,-0.3
14.6,113,1.2,-0.3
14.6,113,0.7,-0.2
14.6,113,0.2,-0.2
14.6,113,-0.2,-0.1
14.6,113,-0.7,0
14.6,113,-1,0.1
14.6,113,-1.4,0.2
14.6,114,-1.7,0.3
14.6,114,-2,0.2
14.6,114,-2.3,0.2
14.6,114,-2.7,0
14.6,114,-3,-0.2
14.6,114,-3.4,-0.4
14.6,114,-3.9,-0.6
14.6,114,-4.3,-0.7
14.6,114,-4.5,-0.8
14.6,114,-4.6,-0.7
14.6,114,-4.5,-0.5
14.6,114,-4.1,-0.1
14.6,114,-3.6,0.4
14.6,114,-2.8,0.8
14.6,114,-1.9,1.3
14.7,114,-0.9,1.6
14.7,114,0.1,1.9
14.7,114,1.1,2
14.7,114,2,2
14.7,114,2.8,1.8
14.7,114,3.5,1.5
14.7,114,3.9,1
14.7,114,4.1,0.5
14.7,114,4.2,-0.1
14.7,114,4,-0.7
14.7,114,3.8,-1.3
14.7,114,3.5,-1.9
14.7,114,3.3,-2.3
14.7,114,3,-2.7
14.7,114,2.8,-3
14.7,114,2.6,-3.3
14.7,114,2.3,-3.6
14.7,115,2.2,-3.9
14.7,115,2.5,-4.1
14.7,115,3.4,-4.1
14.7,115,5.1,-3.9
14.7,115,7.9,-3.6
14.7,115,11.8,-2.9
14.7,115,17.1,-2
14.7,115,23.5,-0.9
14.8,115,31.1,0.3
14.8,115,39.7,1.7
14.8,115,49.2,3.1
14.8,115,59.2,4.4
14.8,115,69.6,5.6
14.8,115,80.1,6.6
14.8,115,90.5,7.4
14.8,115,100.4,7.9
14.8,115,109.8,8.1
14.8,115,118.4,7.9
14.8,115,126,7.4
14.8,115,132.5,6.5
14.8,115,138,5.2
14.8,115,142.2,3.5
14.8,115,145.3,1.5
14.8,115,147.3,-0.7
14.8,115,148.2,-3.1
14.8,115,148.2,-5.5
14.8,115,147.2,-8
14.8,115,145.4,-10.4
14.8,115,142.8,-12.6
14.8,115,139.5,-14.4
14.8,115,135.7,-15.8
14.8,115,131.5,-16.6
14.8,116,127,-16.6
14.9,116,122.4,-15.9
14.9,116,117.7,-14.3
14.9,116,112.8,-11.8
14.9,116,107.9,-8.6
14.9,116,102.9,-4.6
14.9,116,97.8,0.1
14.9,116,92.7,5.3
14.9,116,87.5,10.9
14.9,116,82.3,16.8
14.9,116,77,22.8
14.9,116,71.6,28.9
14.9,116,66.2,34.9
14.9,116,60.6,40.7
14.9,116,55,46.2
14.9,116,49.2,51.2
14.9,116,43.3,55.6
14.9,116,37,59.4
14.9,116,30.5,62.5
14.9,116,23.7,64.9
14.9,116,16.5,66.7
14.9,116,9,67.8
14.9,116,1.2,68.4
14.9,116,-6.9,68.4
14.9,116,-15.1,68
14.9,116,-23.4,67.2
15,116,-31.9,66
15,116,-40.3,64.5
15,116,-48.6,62.7
15,116,-56.9,60.7
15,116,-65,58.5
15,116,-73,56.2
15,117,-80.8,53.6
15,117,-88.5,51
15,117,-95.9,48.2
15,117,-103.2,45.4
15,117,-110.3,42.4
15,117,-117.2,39.4
15,117,-123.8,36.2
15,117,-130.3,32.8
15,117,-136.7,29.3
15,117,-142.9,25.6
15,117,-148.9,21.8
15,117,-154.6,17.8
15,117,-160.2,13.8
15,117,-165.4,9.6
15,117,-170.4,5.5
15,117,-174.9,1.3
15,117,-179.1,-2.9
15,117,-182.8,-6.9
15,117,-185.9,-10.8
15.1,117,-188.7,-14.6
15.1,117,-191.1,-18.2
15.1,117,-193.1,-21.6
15.1,117,-194.8,-25
15.1,117,-196.1,-28.2
15.1,117,-197.2,-31.3
15.1,117,-197.8,-34.2
15.1,117,-198.2,-36.9
15.1,117,-198.2,-39.5
15.1,117,-198,-41.9
15.1,117,-197.5,-44.2
15.1,117,-196.7,-46.4
15.1,117,-195.7,-48.3
15.1,118,-194.5,-50.1
15.1,118,-193,-51.7
15.1,118,-191.4,-53.2
15.1,118,-189.7,-54.5
15.1,118,-187.7,-55.6
15.1,118,-185.6,-56.6
15.1,118,-183.3,-57.6
15.1,118,-180.8,-58.4
15.1,118,-178.1,-59.2
15.1,118,-175.2,-59.9
15.1,118,-172.1,-60.6
15.1,118,-168.9,-61.3
15.2,118,-165.5,-62
15.2,118,-162,-62.7
15.2,118,-158.3,-63.5
15.2,118,-154.5,-64.1
15.2,118,-150.3,-64.6
15.2,118,-145.9,-65
15.2,118,-141.2,-65.2
15.2,118,-136.2,-65.2
15.2,118,-131.1,-65.2
15.2,118,-125.8,-65
15.2,118,-120.4,-64.8
15.2,118,-114.9,-64.5
15.2,118,-109.3,-64.1
15.2,118,-103.7,-63.7
15.2,118,-98.1,-63.1
15.2,118,-92.5,-62.5
15.2,118,-86.9,-61.9
15.2,118,-81.5,-61.2
15.2,118,-76.1,-60.6
15.2,118,-70.9,-60.1
15.2,119,-65.8,-59.5
15.2,119,-60.8,-59
15.2,119,-55.9,-58.5
15.2,119,-51.3,-58
15.2,119,-46.8,-57.5
15.3,119,-42.5,-57.1
15.3,119,-38.3,-56.8
15.3,119,-34.1,-56.4
15.3,119,-29.8,-56.1
15.3,119,-25.6,-55.7
15.3,119,-21.3,-55.3
15.3,119,-17,-54.9
15.3,119,-12.6,-54.5
15.3,119,-8.2,-54
15.3,119,-3.8,-53.4
15.3,119,0.6,-52.7
15.3,119,5.1,-51.9
15.3,119,9.4,-51
15.3,119,13.6,-50
15.3,119,17.7,-48.9
15.3,119,21.5,-47.7
15.3,119,25.2,-46.4
15.3,119,28.5,-45.2
15.3,119,31.6,-44
15.3,119,34.5,-42.7
15.3,119,37.2,-41.4
15.3,119,39.8,-39.9
15.3,119,42.5,-38.2
15.3,119,45.5,-36.3
15.3,119,48.7,-34
15.4,119,52.1,-31.5
15.4,119,55.8,-28.7
15.4,120,59.6,-25.8
15.4,120,63.5,-22.7
15.4,120,67.5,-19.5
15.4,120,71.5,-16.3
15.4,120,75.6,-13.1
15.4,120,79.7,-9.9
15.4,120,83.7,-6.8
15.4,120,87.6,-3.8
15.4,120,91.2,-0.9
15.4,120,94.6,1.9
15.4,120,97.8,4.5
15.4,120,100.7,7
15.4,120,103.4,9.3
15.4,120,105.9,11.5
15.4,120,108.3,13.5
15.4,120,110.5,15.4
15.4,120,112.6,17.2
15.4,120,114.6,18.9
15.4,120,116.6,20.5
15.4,120,118.4,21.9
15.4,120,120,23.2
15.4,120,121.3,24.4
15.4,120,122.4,25.4
15.5,120,123.2,26.4
15.5,120,123.9,27.3
15.5,120,124.4,28.2
15.5,120,124.8,29
15.5,120,125.1,29.9
15.5,120,125.5,30.8
15.5,120,126,31.8
15.5,120,126.4,32.8
15.5,120,126.8,33.7
15.5,121,127.1,34.6
15.5,121,127.2,35.4
15.5,121,127.2,36.1
15.5,121,127.1,36.7
15.5,121,126.8,37.4
15.5,121,126.5,38
15.5,121,126,38.7
15.5,121,125.3,39.5
15.5,121,124.5,40.3
15.5,121,123.6,41.2
15.5,121,122.8,42.2
15.5,121,122.1,43.2
15.5,121,121.4,44.3
15.5,121,120.9,45.2
15.5,121,120.4,46.1
15.5,121,120,46.7
15.6,121,119.5,47.1
15.6,121,119.1,47.2
15.6,121,118.6,47.1
15.6,121,118.1,46.7
15.6,121,117.4,46.2
15.6,121,116.6,45.5
15.6,121,115.6,44.9
15.6,121,114.3,44.1
15.6,121,112.8,43.4
15.6,121,111.1,42.7
15.6,121,109.2,42
15.6,121,107.2,41.5
15.6,121,105.1,41
15.6,121,102.9,40.6
15.6,121,100.7,40.2
15.6,121,98.5,40
15.6,122,96.2,39.8
15.6,122,93.8,39.8
15.6,122,91.4,39.8
15.6,122,88.9,39.9
15.6,122,86.4,40.1
15.6,122,83.9,40.4
15.6,122,81.5,40.8
15.6,122,79.3,41.2
15.6,122,77.1,41.6
15.7,122,75.1,41.9
15.7,122,73.1,42.2
15.7,122,71.2,42.3
15.7,122,69.4,42.4
15.7,122,67.5,42.5
15.7,122,65.6,42.5
15.7,122,63.7,42.4
15.7,122,61.6,42.2
15.7,122,59.5,41.9
15.7,122,57.2,41.5
15.7,122,54.8,41.1
15.7,122,52.4,40.6
15.7,122,50,40
15.7,122,47.6,39.4
15.7,122,45.4,38.8
15.7,122,43.2,38.1
15.7,122,41,37.3
15.7,122,38.9,36.4
15.7,122,36.8,35.4
15.7,122,34.5,34.3
15.7,122,32.1,33.1
15.7,122,29.6,31.8
15.7,122,26.9,30.3
15.7,123,24.1,28.8
15.7,123,21.3,27.3
15.8,123,18.5,25.9
15.8,123,15.8,24.5
15.8,123,13.3,23.3
15.8,123,10.9,22.2
15.8,123,8.7,21.4
15.8,123,6.6,20.7
15.8,123,4.7,20.3
15.8,123,3,20.1
15.8,123,1.4,20
15.8,123,-0.1,19.9
15.8,123,-1.4,19.8
15.8,123,-2.5,19.6
15.8,123,-3.6,19.4
15.8,123,-4.5,19.2
15.8,123,-5.3,18.9
15.8,123,-6.2,18.5
15.8,123,-7.1,18.1
15.8,123,-8,17.6
15.8,123,-9,16.9
15.8,123,-10.1,16.2
15.8,123,-11.3,15.4
15.8,123,-12.5,14.5
15.8,123,-13.6,13.7
15.8,123,-14.8,12.8
15.8,123,-15.9,12.1
15.9,123,-17,11.3
15.9,123,-18,10.6
15.9,123,-19,10
15.9,123,-20,9.3
15.9,123,-20.9,8.8
15.9,124,-21.7,8.3
15.9,124,-22.5,7.8
15.9,124,-23.3,7.4
15.9,124,-24,6.9
15.9,124,-24.6,6.4
15.9,124,-25.4,5.7
15.9,124,-26.2,4.9
15.9,124,-27.2,4
15.9,124,-28.4,3.1
15.9,124,-29.6,2.1
15.9,124,-30.8,1.2
15.9,124,-32,0.2
15.9,124,-33.2,-0.7
15.9,124,-34.4,-1.6
15.9,124,-35.5,-2.4
15.9,124,-36.6,-3.3
15.9,124,-37.5,-4.2
15.9,124,-38.5,-5
15.9,124,-39.4,-5.7
15.9,124,-40.2,-6.5
16,124,-40.9,-7.1
16,124,-41.6,-7.7
16,124,-42.1,-8.3
16,124,-42.5,-8.8
16,124,-42.8,-9.3
16,124,-43,-9.7
16,124,-43,-10
16,124,-43,-10.4
16,124,-42.8,-10.8
16,124,-42.6,-11.3
16,124,-42.3,-11.8
16,124,-41.9,-12.4
16,125,-41.5,-13
16,125,-41,-13.7
16,125,-40.4,-14.3
16,125,-39.8,-15
16,125,-39.1,-15.7
16,125,-38.4,-16.3
16,125,-37.6,-16.8
16,125,-37,-17.2
16,125,-36.3,-17.5
16,125,-35.7,-17.7
16,125,-35.2,-17.7
16,125,-34.9,-17.6
16,125,-34.6,-17.4
16.1,125,-34.5,-17.1
16.1,125,-34.5,-16.6
16.1,125,-34.6,-16
16.1,125,-34.8,-15.3
16.1,125,-35,-14.6
16.1,125,-35.2,-13.9
16.1,125,-35.4,-13.2
16.1,125,-35.6,-12.6
16.1,125,-35.7,-12.1
16.1,125,-35.9,-11.7
16.1,125,-35.9,-11.4
16.1,125,-35.9,-11.1
16.1,125,-35.7,-10.9
16.1,125,-35.4,-10.7
16.1,125,-35,-10.6
16.1,125,-34.6,-10.6
16.1,125,-34.1,-10.8
16.1,125,-33.7,-11.1
16.1,125,-33.1,-11.4
16.1,126,-32.5,-11.7
16.1,126,-31.8,-11.9
16.1,126,-31.1,-12.1
16.1,126,-30.4,-12.2
16.1,126,-29.8,-12.4
16.1,126,-29.4,-12.5
16.2,126,-29.3,-12.8
16.2,126,-29.4,-13.2
16.2,126,-29.7,-13.6
16.2,126,-30,-14
16.2,126,-30.3,-14.4
16.2,126,-30.5,-14.8
16.2,126,-30.5,-15.1
16.2,126,-30.3,-15.4
16.2,126,-29.9,-15.6
16.2,126,-29.3,-15.7
16.2,126,-28.6,-15.7
16.2,126,-27.7,-15.5
16.2,126,-26.6,-15.2
16.2,126,-25.3,-14.7
16.2,126,-24,-14.1
16.2,126,-22.6,-13.3
16.2,126,-21.3,-12.6
16.2,126,-20.1,-11.8
16.2,126,-19.1,-11.1
16.2,126,-18.2,-10.4
16.2,126,-17.5,-9.8
16.2,126,-17,-9.3
16.2,126,-16.6,-8.9
16.2,126,-16.4,-8.6
16.2,126,-16.2,-8.5
16.3,126,-16.2,-8.5
16.3,127,-16.2,-8.8
16.3,127,-16.2,-9.1
16.3,127,-16.2,-9.4
16.3,127,-16.2,-9.8
16.3,127,-16.1,-10.1
16.3,127,-16.1,-10.4
16.3,127,-16,-10.7
16.3,127,-16,-10.9
16.3,127,-15.8,-11
16.3,127,-15.7,-11
16.3,127,-15.4,-10.9
16.3,127,-15.1,-10.7
16.3,127,-14.6,-10.3
16.3,127,-13.9,-9.6
16.3,127,-13,-8.8
16.3,127,-12,-7.8
16.3,127,-10.9,-6.8
16.3,127,-9.8,-5.8
16.3,127,-8.9,-4.8
16.3,127,-8.1,-3.9
16.3,127,-7.5,-3.1
16.3,127,-7,-2.4
16.3,127,-6.6,-1.8
16.3,127,-6.3,-1.3
16.4,127,-6.1,-0.9
16.4,127,-6,-0.7
16.4,127,-5.9,-0.6
16.4,127,-5.9,-0.6
16.4,127,-5.8,-0.7
16.4,127,-5.7,-0.8
16.4,127,-5.6,-1
16.4,127,-5.4,-1.1
16.4,128,-5.2,-1.3
16.4,128,-4.8,-1.4
16.4,128,-4.3,-1.4
16.4,128,-3.7,-1.4
16.4,128,-3.1,-1.3
16.4,128,-2.5,-1.2
16.4,128,-1.9,-1.1
16.4,128,-1.4,-1.1
16.4,128,-1,-1
16.4,128,-0.6,-0.9
16.4,128,-0.3,-0.8
16.4,128,-0.2,-0.9
16.4,128,-0.1,-1
16.4,128,0,-1.3
16.4,128,0.3,-1.6
16.4,128,0.6,-1.9
16.4,128,1,-2.3
16.5,128,1.5,-2.7
16.5,128,2,-3
16.5,128,2.6,-3.3
16.5,128,3.1,-3.5
16.5,128,3.5,-3.6
16.5,128,3.9,-3.6
16.5,128,4.1,-3.6
16.5,128,4.1,-3.5
16.5,128,4,-3.3
16.5,128,3.7,-3.1
16.5,128,3.3,-2.9
16.5,128,2.9,-2.7
16.5,128,2.4,-2.5
16.5,128,1.9,-2.3
16.5,128,1.5,-2.2
16.5,129,1.2,-2
16.5,129,1.1,-1.8
16.5,129,1.2,-1.6
16.5,129,1.5,-1.3
16.5,129,2,-1
16.5,129,2.7,-0.7
16.5,129,3.5,-0.4
16.5,129,4.4,-0.2
16.5,129,5.3,-0.1
16.5,129,6.1,-0.2
16.6,129,6.7,-0.4
16.6,129,7.1,-0.7
16.6,129,7.3,-1.2
16.6,129,7.2,-1.8
16.6,129,6.9,-2.4
16.6,129,6.4,-3.1
16.6,129,5.7,-3.8
16.6,129,4.9,-4.3
16.6,129,4.2,-4.7
16.6,129,3.6,-4.9
16.6,129,3.1,-5
16.6,129,2.8,-4.8
16.6,129,2.6,-4.6
16.6,129,2.5,-4.3
16.6,129,2.5,-3.8
16.6,129,2.6,-3.2
16.6,129,2.7,-2.5
16.6,129,3,-1.8
16.6,129,3.3,-1.2
16.6,129,3.5,-0.7
16.6,129,3.7,-0.3
16.6,129,3.9,-0.1
16.6,130,3.8,-0.1
16.6,130,3.6,-0.2
16.6,130,3.2,-0.5
16.7,130,2.7,-0.8
16.7,130,2,-1.2
16.7,130,1.2,-1.5
16.7,130,0.4,-1.8
16.7,130,-0.4,-2
16.7,130,-1.2,-2.2
16.7,130,-1.9,-2.2
16.7,130,-2.4,-2.1
16.7,130,-2.7,-2
16.7,130,-2.8,-1.8
16.7,130,-2.6,-1.6
16.7,130,-2.2,-1.3
16.7,130,-1.7,-1
16.7,130,-1.1,-0.6
16.7,130,-0.4,-0.2
16.7,130,0.4,0.2
16.7,130,1.1,0.6
16.7,130,1.8,0.9
16.7,130,2.2,0.9
16.7,130,2.5,0.7
16.7,130,2.6,0.4
16.7,130,2.4,-0.1
16.7,130,2,-0.6
16.7,130,1.5,-1.1
16.7,130,0.8,-1.6
16.8,130,0.2,-2
16.8,130,-0.5,-2.4
16.8,130,-1.1,-2.5
16.8,130,-1.6,-2.6
16.8,131,-1.9,-2.6
16.8,131,-2.2,-2.5
16.8,131,-2.4,-2.4
16.8,131,-2.6,-2.1
16.8,131,-2.6,-1.8
16.8,131,-2.6,-1.5
16.8,131,-2.5,-1.1
16.8,131,-2.4,-0.8
16.8,131,-2.3,-0.5
16.8,131,-2.1,-0.4
16.8,131,-2,-0.4
16.8,131,-1.9,-0.5
16.8,131,-1.9,-0.7
16.8,131,-2,-0.9
16.8,131,-2.2,-1.3
16.8,131,-2.4,-1.6
16.8,131,-2.7,-1.9
16.8,131,-3,-2.1
16.8,131,-3.2,-2.1
16.8,131,-3.4,-2.1
16.8,131,-3.6,-1.9
16.9,131,-3.7,-1.5
16.9,131,-3.8,-1.2
16.9,131,-3.9,-0.8
16.9,131,-4,-0.5
16.9,131,-4.1,-0.2
16.9,131,-4.1,0.2
16.9,131,-4.2,0.5
16.9,131,-4.1,0.8
16.9,131,-4.1,1
16.9,131,-4.1,1.1
16.9,131,-4,1.2
16.9,132,-4,1.1
16.9,132,-3.9,1
16.9,132,-3.9,0.8
16.9,132,-3.8,0.7
16.9,132,-3.8,0.5
16.9,132,-3.7,0.3
16.9,132,-3.7,0.1
16.9,132,-3.6,-0.2
16.9,132,-3.5,-0.5
16.9,132,-3.3,-0.8
16.9,132,-3.2,-1.2
16.9,132,-3,-1.6
16.9,132,-2.7,-1.9
16.9,132,-2.5,-2.3
17,132,-2.2,-2.5
17,132,-1.9,-2.6
17,132,-1.7,-2.7
17,132,-1.4,-2.6
17,132,-1,-2.3
17,132,-0.7,-2
17,132,-0.3,-1.5
17,132,-0.1,-1.1
17,132,0.1,-0.9
17,132,0,-0.9
17,132,-0.3,-1
17,132,-0.8,-1.3
17,132,-1.5,-1.7
17,132,-2.1,-2.2
17,132,-2.8,-2.7
17,132,-3.4,-3.2
17,132,-3.9,-3.6
17,132,-4.2,-4
17,133,-4.5,-4.2
17,133,-4.6,-4.3
17,133,-4.6,-4.1
17,133,-4.3,-3.8
17,133,-3.9,-3.2
17,133,-3.3,-2.4
17,133,-2.7,-1.4
17.1,133,-2.2,-0.3
17.1,133,-1.7,0.8
17.1,133,-1.3,1.9
17.1,133,-1,2.9
17.1,133,-0.8,3.7
17.1,133,-0.6,4.5
17.1,133,-0.5,5.1
17.1,133,-0.5,5.6
17.1,133,-0.5,5.9
17.1,133,-0.5,6
17.1,133,-0.6,5.9
17.1,133,-0.6,5.7
17.1,133,-0.7,5.3
17.1,133,-0.7,4.8
17.1,133,-0.6,4.2
17.1,133,-0.6,3.6
17.1,133,-0.5,3.1
17.1,133,-0.6,2.6
17.1,133,-0.6,2.1
17.1,133,-0.7,1.7
17.1,133,-0.9,1.3
17.1,133,-1,0.9
17.1,133,-1.1,0.5
17.1,133,-1.2,0.3
17.1,133,-1.2,0.2
17.2,134,-1.1,0.2
17.2,134,-0.9,0.3
17.2,134,-0.6,0.5
17.2,134,-0.3,0.7
17.2,134,0.1,0.9
17.2,134,0.4,1.1
17.2,134,0.7,1.2
17.2,134,1,1.4
17.2,134,1.4,1.5
17.2,134,1.7,1.7
17.2,134,2,1.9
17.2,134,2.3,2.1
17.2,134,2.4,2.4
17.2,134,2.5,2.6
17.2,134,2.4,2.8
17.2,134,2.2,3
17.2,134,1.9,3.3
17.2,134,1.6,3.5
17.2,134,1.2,3.7
17.2,134,1,3.8
17.2,134,0.8,3.9
17.2,134,0.7,3.9
17.2,134,0.7,3.8
17.2,134,0.7,3.7
17.2,134,0.8,3.6
17.3,134,0.9,3.4
17.3,134,1,3.3
17.3,134,1.2,3
17.3,134,1.4,2.7
17.3,134,1.6,2.3
17.3,134,1.9,1.9
17.3,134,2.2,1.3
17.3,135,2.4,0.7
17.3,135,2.6,0.1
17.3,135,2.7,-0.4
17.3,135,2.7,-0.8
17.3,135,2.7,-1.1
17.3,135,2.6,-1.2
17.3,135,2.4,-1.2
17.3,135,2.2,-1.2
17.3,135,1.8,-1.1
17.3,135,1.5,-1.1
17.3,135,1.1,-1.1
17.3,135,0.9,-1
17.3,135,0.7,-0.9
17.3,135,0.6,-0.8
17.3,135,0.7,-0.6
17.3,135,0.9,-0.5
17.3,135,1.2,-0.3
17.3,135,1.7,-0.2
17.4,135,2.3,0
17.4,135,3.2,0
17.4,135,4.2,0.1
17.4,135,5.2,0.1
17.4,135,6.2,0
17.4,135,7.2,-0.2
17.4,135,7.9,-0.4
17.4,135,8.5,-0.7
17.4,135,9,-0.9
17.4,135,9.5,-1
17.4,135,9.9,-1
17.4,135,10.2,-1
17.4,135,10.4,-1
17.4,135,10.3,-1
17.4,136,9.9,-1
17.4,136,9.3,-1.1
17.4,136,8.5,-1.1
17.4,136,7.6,-1.1
17.4,136,6.7,-0.9
17.4,136,5.7,-0.8
17.4,136,4.8,-0.6
17.4,136,3.9,-0.5
17.4,136,3.2,-0.4
17.4,136,2.5,-0.3
17.4,136,2.1,-0.3
17.5,136,1.7,-0.3
17.5,136,1.4,-0.4
17.5,136,1.2,-0.5
17.5,136,0.9,-0.6
17.5,136,0.7,-0.8
17.5,136,0.3,-0.9
17.5,136,-0.1,-1
17.5,136,-0.6,-1.1
17.5,136,-1.1,-1.2
17.5,136,-1.7,-1.3
17.5,136,-2.2,-1.4
17.5,136,-2.7,-1.5
17.5,136,-3.1,-1.6
17.5,136,-3.5,-1.7
17.5,136,-3.8,-1.9
17.5,136,-4.1,-2
17.5,136,-4.3,-2.2
17.5,136,-4.5,-2.4
17.5,136,-4.6,-2.6
17.5,136,-4.8,-2.8
17.5,136,-4.8,-3
17.5,137,-4.8,-3.1
17.5,137,-4.6,-3.2
17.5,137,-4.2,-3.2
17.5,137,-3.7,-3.1
17.6,137,-2.9,-3
17.6,137,-2.1,-2.9
17.6,137,-1.3,-2.7
17.6,137,-0.5,-2.5
17.6,137,0.2,-2.3
17.6,137,0.6,-2.1
17.6,137,0.9,-1.9
17.6,137,1,-1.9
17.6,137,1,-1.9
17.6,137,0.9,-1.9
17.6,137,0.8,-1.9
17.6,137,0.6,-1.9
17.6,137,0.5,-1.8
17.6,137,0.4,-1.6
17.6,137,0.3,-1.3
17.6,137,0.3,-0.9
17.6,137,0.3,-0.4
17.6,137,0.4,0
17.6,137,0.5,0.5
17.6,137,0.6,0.7
17.6,137,0.8,0.9
17.6,137,0.9,0.8
17.6,137,1,0.5
17.6,137,1.1,0.1
17.6,137,1.1,-0.5
17.7,137,1.1,-1.2
17.7,137,0.9,-1.9
17.7,137,0.5,-2.7
17.7,138,0.1,-3.4
17.7,138,-0.4,-4
17.7,138,-0.9,-4.6
17.7,138,-1.4,-5
17.7,138,-2,-5.3
17.7,138,-2.5,-5.4
17.7,138,-2.9,-5.4
17.7,138,-3.2,-5.4
17.7,138,-3.4,-5.2
17.7,138,-3.5,-4.9
17.7,138,-3.4,-4.5
17.7,138,-3.3,-4.1
17.7,138,-3,-3.5
17.7,138,-2.6,-2.9
17.7,138,-2.2,-2.2
17.7,138,-1.8,-1.4
17.7,138,-1.3,-0.5
17.7,138,-0.9,0.4
17.7,138,-0.6,1.4
17.7,138,-0.4,2.3
17.7,138,-0.3,3.1
17.7,138,-0.4,3.8
17.8,138,-0.5,4.3
17.8,138,-0.6,4.6
17.8,138,-0.7,4.6
17.8,138,-0.7,4.5
17.8,138,-0.7,4.1
17.8,138,-0.6,3.6
17.8,138,-0.3,3
17.8,138,0,2.4
17.8,138,0.5,1.6
17.8,138,1.1,0.9
17.8,139,1.7,0.3
17.8,139,2.4,-0.3
17.8,139,3,-0.7
17.8,139,3.5,-1.1
17.8,139,3.8,-1.4
17.8,139,3.8,-1.6
17.8,139,3.6,-1.8
17.8,139,3.1,-2
17.8,139,2.5,-2.2
17.8,139,1.9,-2.2
17.8,139,1.2,-2.2
17.8,139,0.7,-2.1
17.8,139,0.3,-1.7
17.8,139,0.1,-1.2
17.8,139,0.2,-0.4
17.9,139,0.5,0.5
17.9,139,0.9,1.6
17.9,139,1.4,2.7
17.9,139,1.9,3.8
17.9,139,2.3,4.7
17.9,139,2.7,5.6
17.9,139,3.1,6.4
17.9,139,3.5,6.9
17.9,139,3.9,7.3
17.9,139,4.3,7.4
17.9,139,4.8,7.4
17.9,139,5.3,7.1
17.9,139,5.8,6.7
17.9,139,6.3,6.3
17.9,139,6.8,5.9
17.9,139,7.3,5.5
17.9,139,7.7,5.2
17.9,140,8,5.2
17.9,140,8.1,5.4
17.9,140,8,5.8
17.9,140,7.8,6.3
17.9,140,7.4,6.9
17.9,140,6.8,7.6
17.9,140,6.1,8.2
17.9,140,5.4,8.8
18,140,4.5,9.3
18,140,3.7,9.7
18,140,2.9,10.1
18,140,2.2,10.4
18,140,1.6,10.7
18,140,1.1,10.8
18,140,0.8,10.8
18,140,0.6,10.7
18,140,0.6,10.4
18,140,0.7,9.9
18,140,0.9,9.3
18,140,1.2,8.5
18,140,1.5,7.6
18,140,1.9,6.7
18,140,2.2,5.7
18,140,2.5,4.7
18,140,2.6,3.8
18,140,2.7,2.8
18,140,2.5,2
18,140,2.3,1.2
18,140,2.1,0.5
18,140,1.7,0
18,140,1.4,-0.5
18,140,1.1,-1
18,141,0.8,-1.4
18.1,141,0.7,-1.7
18.1,141,0.7,-2
18.1,141,0.9,-2.1
18.1,141,1.3,-2
18.1,141,1.7,-1.8
18.1,141,2.2,-1.5
18.1,141,2.8,-0.9
18.1,141,3.4,-0.3
18.1,141,3.9,0.4
18.1,141,4.4,1.1
18.1,141,4.7,1.8
18.1,141,4.9,2.4
18.1,141,4.8,2.8
18.1,141,4.7,3.1
18.1,141,4.3,3.2
18.1,141,3.9,3.1
18.1,141,3.2,2.9
18.1,141,2.5,2.4
18.1,141,1.7,1.7
18.1,141,0.8,0.9
18.1,141,0,0
18.1,141,-0.8,-1
18.1,141,-1.5,-2
18.1,141,-2.2,-3
18.1,141,-2.7,-4
18.2,141,-3.2,-4.8
18.2,141,-3.5,-5.3
18.2,141,-3.7,-5.6
18.2,141,-3.7,-5.7
18.2,141,-3.6,-5.5
18.2,141,-3.3,-5.1
18.2,142,-2.9,-4.5
18.2,142,-2.4,-3.9
18.2,142,-1.8,-3.2
18.2,142,-1.2,-2.6
18.2,142,-0.5,-2
18.2,142,0,-1.5
18.2,142,0.5,-1.2
18.2,142,0.8,-0.9
18.2,142,0.9,-0.9
18.2,142,0.9,-0.9
18.2,142,0.8,-1
18.2,142,0.6,-1.1
18.2,142,0.3,-1.2
18.2,142,-0.1,-1.3
18.2,142,-0.5,-1.3
18.2,142,-1,-1.1
18.2,142,-1.4,-0.8
18.2,142,-1.7,-0.5
18.2,142,-2,-0.1
18.3,142,-2.1,0.2
18.3,142,-2,0.3
18.3,142,-1.8,0.4
18.3,142,-1.4,0.3
18.3,142,-0.9,0
18.3,142,-0.2,-0.3
18.3,142,0.4,-0.7
18.3,142,1,-1.3
18.3,142,1.3,-1.8
18.3,142,1.5,-2.3
18.3,142,1.5,-2.7
18.3,142,1.5,-3
18.3,142,1.5,-3.3
18.3,143,1.4,-3.4
18.3,143,1.3,-3.6
18.3,143,1.2,-3.9
18.3,143,1.1,-4.1
18.3,143,1,-4.3
18.3,143,0.8,-4.4
18.3,143,0.7,-4.5
18.3,143,0.5,-4.4
18.3,143,0.3,-4.3
18.3,143,0.2,-4
18.3,143,0.1,-3.5
18.3,143,0,-3.1
18.4,143,-0.1,-2.7
18.4,143,-0.2,-2.3
18.4,143,-0.3,-2
18.4,143,-0.5,-1.8
18.4,143,-0.7,-1.8
18.4,143,-1.1,-2
18.4,143,-1.5,-2.4
18.4,143,-2.1,-2.8
18.4,143,-2.7,-3.3
18.4,143,-3.3,-3.8
18.4,143,-4,-4.3
18.4,143,-4.6,-4.7
18.4,143,-5.1,-5
18.4,143,-5.5,-5.2
18.4,143,-5.7,-5.3
18.4,143,-5.6,-5.2
18.4,143,-5.4,-4.9
18.4,143,-5.1,-4.5
18.4,143,-4.6,-4
18.4,143,-4,-3.6
18.4,144,-3.4,-3.1
18.4,144,-2.7,-2.8
18.4,144,-2.1,-2.5
18.4,144,-1.6,-2.2
18.4,144,-1.2,-2
18.5,144,-1,-1.7
18.5,144,-0.9,-1.4
18.5,144,-0.9,-1.1
18.5,144,-1.1,-0.7
18.5,144,-1.3,-0.3
18.5,144,-1.5,0
18.5,144,-1.7,0.4
18.5,144,-1.9,0.8
18.5,144,-1.9,1.1
18.5,144,-1.8,1.4
18.5,144,-1.7,1.6
18.5,144,-1.4,1.7
18.5,144,-1,1.7
18.5,144,-0.5,1.6
18.5,144,0,1.3
18.5,144,0.5,1.1
18.5,144,1.2,0.8
18.5,144,1.8,0.5
18.5,144,2.3,0.2
18.5,144,2.9,-0.1
18.5,144,3.3,-0.3
18.5,144,3.7,-0.5
18.5,144,4,-0.7
18.5,144,4.2,-0.7
18.5,144,4.3,-0.6
18.6,144,4.3,-0.3
18.6,144,4.3,0.1
18.6,145,4.3,0.7
18.6,145,4.3,1.4
18.6,145,4.2,2.1
18.6,145,4.1,2.7
18.6,145,3.9,3.2
18.6,145,3.7,3.6
18.6,145,3.6,3.8
18.6,145,3.5,3.8
18.6,145,3.5,3.7
18.6,145,3.4,3.5
18.6,145,3.4,3.3
18.6,145,3.5,2.9
18.6,145,3.5,2.6
18.6,145,3.4,2.2
18.6,145,3.2,1.8
18.6,145,2.9,1.4
18.6,145,2.5,1.2
18.6,145,1.9,1
18.6,145,1.2,0.9
18.6,145,0.2,0.7
18.6,145,-1.1,0.5
18.6,145,-2.5,0
18.6,145,-4,-0.5
18.7,145,-5.5,-1
18.7,145,-6.8,-1.4
18.7,145,-7.8,-1.7
18.7,145,-8.5,-1.8
18.7,145,-9,-1.8
18.7,145,-9.3,-1.7
18.7,145,-9.4,-1.5
18.7,145,-9.4,-1.4
18.7,145,-9.2,-1.2
18.7,146,-8.8,-1.1
18.7,146,-8.4,-0.9
18.7,146,-7.7,-0.8
18.7,146,-7,-0.6
18.7,146,-6.2,-0.4
18.7,146,-5.5,-0.2
18.7,146,-4.8,0
18.7,146,-4.2,0.3
18.7,146,-3.8,0.5
18.7,146,-3.5,0.8
18.7,146,-3.1,1.2
18.7,146,-2.7,1.6
18.7,146,-2.1,1.9
18.7,146,-1.3,2.1
18.7,146,-0.4,2.1
18.7,146,0.3,1.9
18.8,146,0.9,1.4
18.8,146,1,0.8
18.8,146,0.6,-0.2
18.8,146,-0.4,-1.4
18.8,146,-2.2,-3
18.8,146,-4.7,-4.9
18.8,146,-8.2,-7.3
18.8,146,-12.5,-10.1
18.8,146,-17.6,-13.3
18.8,146,-23.6,-17.1
18.8,146,-30.2,-21.3
18.8,146,-37.4,-26
18.8,146,-45,-31.2
18.8,146,-53,-36.8
18.8,146,-61.2,-42.7
18.8,146,-69.5,-48.8
18.8,147,-77.7,-55.1
18.8,147,-85.8,-61.3
18.8,147,-93.6,-67.4
18.8,147,-101,-73.2
18.8,147,-108.1,-78.6
18.8,147,-114.7,-83.5
18.8,147,-120.9,-87.9
18.8,147,-126.6,-91.7
18.8,147,-131.9,-94.7
18.9,147,-136.5,-96.9
18.9,147,-140.5,-98.1
18.9,147,-143.8,-98.4
18.9,147,-146.2,-97.6
18.9,147,-148,-95.8
18.9,147,-148.9,-93
18.9,147,-149.2,-89.4
18.9,147,-148.7,-84.9
18.9,147,-147.4,-79.7
18.9,147,-145.4,-73.9
18.9,147,-142.6,-67.7
18.9,147,-139.1,-61.1
18.9,147,-135,-54.4
18.9,147,-130.2,-47.6
18.9,147,-124.9,-40.9
18.9,147,-119.1,-34.3
18.9,147,-112.9,-27.9
18.9,147,-106.2,-21.6
18.9,147,-99.1,-15.6
18.9,147,-91.5,-9.7
18.9,147,-83.6,-4.1
18.9,147,-75.4,1.3
18.9,147,-66.8,6.6
18.9,148,-58.1,11.8
18.9,148,-49.2,16.9
19,148,-40.1,22.1
19,148,-30.9,27.3
19,148,-21.6,32.7
19,148,-12.4,38.1
19,148,-3.1,43.7
19,148,6.1,49.3
19,148,15.3,55
19,148,24.4,60.6
19,148,33.4,66
19,148,42.4,71.3
19,148,51.3,76.3
19,148,60,81
19,148,68.7,85.3
19,148,77.2,89.2
19,148,85.5,92.6
19,148,93.7,95.5
19,148,101.8,98.1
19,148,109.7,100.3
19,148,117.3,102.2
19,148,124.7,103.7
19,148,131.9,105
19,148,138.8,106
19,148,145.5,107
19,148,151.9,107.8
19,148,158.1,108.7
19.1,148,164.1,109.4
19.1,148,169.7,110
19.1,148,175,110.5
19.1,148,179.9,110.9
19.1,148,184.4,111.1
19.1,149,188.6,111.1
19.1,149,192.4,110.9
19.1,149,195.9,110.4
19.1,149,199,109.8
19.1,149,201.9,108.9
19.1,149,204.4,107.8
19.1,149,206.5,106.6
19.1,149,208.2,105.1
19.1,149,209.5,103.6
19.1,149,210.4,101.8
19.1,149,210.9,99.9
19.1,149,211,97.9
19.1,149,210.5,95.8
19.1,149,209.6,93.6
19.1,149,208.3,91.1
19.1,149,206.5,88.5
19.1,149,204.4,85.8
19.1,149,202.1,83.1
19.1,149,199.6,80.3
19.1,149,197,77.5
19.2,149,194.5,74.7
19.2,149,192,71.9
19.2,149,189.5,69
19.2,149,186.9,66.1
19.2,149,184.2,63.1
19.2,149,181.4,60.1
19.2,149,178.3,57
19.2,149,174.9,53.9
19.2,149,171.3,50.8
19.2,149,167.3,47.7
19.2,149,163,44.6
19.2,149,158.5,41.5
19.2,150,153.7,38.6
19.2,150,148.7,35.6
19.2,150,143.6,32.7
19.2,150,138.3,29.7
19.2,150,132.9,26.8
19.2,150,127.3,23.8
19.2,150,121.7,20.8
19.2,150,116,17.7
19.2,150,110.2,14.6
19.2,150,104.4,11.6
19.2,150,98.7,8.6
19.2,150,93,5.6
19.2,150,87.5,2.6
19.3,150,82,-0.3
19.3,150,76.7,-3.2
19.3,150,71.4,-5.9
19.3,150,66.4,-8.5
19.3,150,61.4,-10.9
19.3,150,56.6,-13.1
19.3,150,51.9,-15.1
19.3,150,47.3,-16.9
19.3,150,42.7,-18.6
19.3,150,38.2,-20.2
19.3,150,33.6,-21.9
19.3,150,29.1,-23.6
19.3,150,24.7,-25.5
19.3,150,20.2,-27.4
19.3,150,15.8,-29.5
19.3,150,11.4,-31.6
19.3,150,7,-33.8
19.3,150,2.6,-36.1
19.3,150,-2,-38.4
19.3,151,-6.5,-40.8
19.3,151,-11,-43.2
19.3,151,-15.6,-45.4
19.3,151,-20.1,-47.6
19.3,151,-24.6,-49.6
19.3,151,-29.1,-51.4
19.4,151,-33.7,-53
19.4,151,-38.3,-54.5
19.4,151,-43,-55.8
19.4,151,-47.8,-57
19.4,151,-52.6,-58
19.4,151,-57.3,-58.9
19.4,151,-61.9,-59.6
19.4,151,-66.3,-60.2
19.4,151,-70.6,-60.7
19.4,151,-74.6,-61.2
19.4,151,-78.4,-61.7
19.4,151,-82,-62.2
19.4,151,-85.5,-62.7
19.4,151,-88.8,-63.3
19.4,151,-91.9,-64
19.4,151,-94.9,-64.6
19.4,151,-97.8,-65.2
19.4,151,-100.6,-65.7
19.4,151,-103.2,-66.1
19.4,151,-105.8,-66.4
19.4,151,-108.1,-66.5
19.4,151,-110.3,-66.3
19.4,151,-112.4,-66
19.4,151,-114.3,-65.6
19.4,151,-116,-65.1
19.5,151,-117.6,-64.5
19.5,152,-119.1,-64
19.5,152,-120.6,-63.5
19.5,152,-121.9,-62.9
19.5,152,-123.2,-62.4
19.5,152,-124.3,-61.8
19.5,152,-125.3,-61.2
19.5,152,-126.2,-60.7
19.5,152,-127,-60.3
19.5,152,-127.7,-59.9
19.5,152,-128.2,-59.7
19.5,152,-128.6,-59.5
19.5,152,-128.9,-59.4
19.5,152,-129.2,-59.3
19.5,152,-129.3,-59.3
19.5,152,-129.5,-59.4
19.5,152,-129.6,-59.5
19.5,152,-129.5,-59.5
19.5,152,-129.4,-59.5
19.5,152,-129,-59.3
19.5,152,-128.6,-59
19.5,152,-128.1,-58.6
19.5,152,-127.4,-58
19.5,152,-126.6,-57.2
19.5,152,-125.8,-56.2
19.6,152,-124.9,-55
19.6,152,-123.8,-53.6
19.6,152,-122.8,-51.9
19.6,152,-121.7,-50.1
19.6,152,-120.6,-48.2
19.6,152,-119.4,-46.1
19.6,152,-118.3,-44
19.6,152,-117.1,-41.7
19.6,153,-115.7,-39.5
19.6,153,-114.2,-37.2
19.6,153,-112.6,-35.1
19.6,153,-110.9,-33.1
19.6,153,-109.3,-31.3
19.6,153,-107.6,-29.6
19.6,153,-106.1,-28.2
19.6,153,-104.6,-26.8
19.6,153,-103.1,-25.6
19.6,153,-101.7,-24.5
19.6,153,-100.2,-23.4
19.6,153,-98.8,-22.3
19.6,153,-97.4,-21.3
19.6,153,-96,-20.3
19.6,153,-94.7,-19.5
19.6,153,-93.3,-18.7
19.6,153,-91.9,-17.9
19.7,153,-90.3,-17.2
19.7,153,-88.7,-16.5
19.7,153,-87,-15.9
19.7,153,-85.2,-15.4
19.7,153,-83.3,-14.9
19.7,153,-81.3,-14.4
19.7,153,-79.1,-13.9
19.7,153,-76.8,-13.3
19.7,153,-74.4,-12.6
19.7,153,-71.8,-11.9
19.7,153,-69.2,-11.2
19.7,153,-66.6,-10.4
19.7,153,-64.1,-9.6
19.7,153,-61.7,-8.8
19.7,153,-59.5,-8
19.7,154,-57.5,-7.2
19.7,154,-55.8,-6.5
19.7,154,-54.4,-5.9
19.7,154,-53.2,-5.2
19.7,154,-52.2,-4.6
19.7,154,-51.3,-3.9
19.7,154,-50.5,-3.2
19.7,154,-49.7,-2.6
19.7,154,-48.9,-2.1
19.7,154,-47.9,-1.6
19.8,154,-46.8,-1.2
19.8,154,-45.5,-0.7
19.8,154,-44,-0.2
19.8,154,-42.4,0.3
19.8,154,-40.4,1
19.8,154,-38.3,1.7
19.8,154,-36,2.6
19.8,154,-33.4,3.6
19.8,154,-30.8,4.7
19.8,154,-28.1,5.9
19.8,154,-25.4,7.2
19.8,154,-22.6,8.5
19.8,154,-19.9,9.9
19.8,154,-17.2,11.3
19.8,154,-14.5,12.7
19.8,154,-11.7,14.1
19.8,154,-9,15.5
19.8,154,-6.3,16.8
19.8,154,-3.8,18
19.8,154,-1.4,19.1
19.8,154,0.7,20.1
19.8,154,2.5,20.9
19.8,155,4.1,21.4
19.8,155,5.4,21.9
19.8,155,6.4,22.1
19.9,155,7.3,22.2
19.9,155,8,22.2
19.9,155,8.6,22.1
19.9,155,9.2,22
19.9,155,9.8,21.8
19.9,155,10.4,21.7
19.9,155,11.1,21.5
19.9,155,11.8,21.4
19.9,155,12.7,21.2
19.9,155,13.8,21.1
19.9,155,15.1,21.1
19.9,155,16.6,21.1
19.9,155,18.3,21.1
19.9,155,20.2,21.3
19.9,155,22.2,21.5
19.9,155,24.2,21.8
19.9,155,26.2,22.1
19.9,155,28.1,22.4
19.9,155,29.7,22.7
19.9,155,31.2,23.1
19.9,155,32.5,23.4
19.9,155,33.6,23.8
19.9,155,34.5,24.1
19.9,155,35.2,24.5
19.9,155,35.8,24.7
20,155,36.2,25
20,155,36.6,25.2
20,155,36.9,25.2
20,155,37.2,25.3
20,156,37.4,25.2
20,156,37.7,25.1
20,156,38.1,25
20,156,38.6,24.8
20,156,39.2,24.6
20,156,39.9,24.5
20,156,40.6,24.2
20,156,41.4,24
20,156,42.2,23.6
20,156,43,23.2
20,156,43.8,22.7
20,156,44.5,22.2
20,156,45.1,21.7
20,156,45.6,21.1
20,156,46,20.6
20,156,46.3,20
20,156,46.6,19.5
20,156,46.8,19.1
20,156,47,18.6
20,156,47.3,18.1
20,156,47.4,17.6
20.1,156,47.5,17
20.1,156,47.5,16.3
20.1,156,47.4,15.6
20.1,156,47.2,14.9
20.1,156,47,14.3
20.1,156,46.8,13.8
20.1,156,46.5,13.3
20.1,156,46.1,13
20.1,156,45.7,12.6
20.1,156,45.1,12.2
20.1,156,44.4,11.9
20.1,157,43.7,11.5
20.1,157,42.8,11.1
20.1,157,42,10.7
20.1,157,41.1,10.3
20.1,157,40.3,10
20.1,157,39.5,9.7
20.1,157,38.7,9.4
20.1,157,38.1,9
20.1,157,37.5,8.6
20.1,157,37,8.3
20.1,157,36.6,7.9
20.1,157,36.3,7.6
20.1,157,36,7.3
20.1,157,35.8,6.9
20.2,157,35.6,6.6
20.2,157,35.6,6.4
20.2,157,35.6,6.1
20.2,157,35.8,6
20.2,157,36,5.8
20.2,157,36.2,5.7
20.2,157,36.3,5.5
20.2,157,36.4,5.2
20.2,157,36.3,4.8
20.2,157,36.1,4.3
20.2,157,35.8,3.7
20.2,157,35.3,3
20.2,157,34.6,2.3
20.2,157,33.8,1.5
20.2,157,32.7,0.8
20.2,157,31.6,0
20.2,157,30.3,-0.8
20.2,157,28.9,-1.5
20.2,158,27.5,-2.1
20.2,158,26.1,-2.7
20.2,158,24.7,-3.1
20.2,158,23.5,-3.3
20.2,158,22.5,-3.4
20.2,158,21.5,-3.4
20.2,158,20.6,-3.3
20.3,158,19.9,-3
20.3,158,19.1,-2.6
20.3,158,18.5,-2.3
20.3,158,17.9,-1.9
20.3,158,17.3,-1.4
20.3,158,16.7,-1
20.3,158,16.1,-0.5
20.3,158,15.6,-0.1
20.3,158,15.1,0.4
20.3,158,14.6,0.7
20.3,158,14.1,1
20.3,158,13.7,1.2
20.3,158,13.3,1.5
20.3,158,13,1.7
20.3,158,12.8,1.9
20.3,158,12.6,2.1
20.3,158,12.3,2.3
20.3,158,12,2.5
20.3,158,11.7,2.6
20.3,158,11.3,2.5
20.3,158,11,2.5
20.3,158,10.6,2.4
20.3,158,10.1,2.3
20.3,158,9.5,2.1
20.3,158,8.9,2
20.4,159,8.2,1.9
20.4,159,7.5,1.8
20.4,159,6.7,1.7
20.4,159,5.8,1.6
20.4,159,4.8,1.3
20.4,159,3.7,0.9
20.4,159,2.5,0.2
20.4,159,1.1,-0.5
20.4,159,-0.1,-1.4
20.4,159,-1.3,-2.1
20.4,159,-2.2,-2.8
20.4,159,-2.7,-3.2
20.4,159,-2.9,-3.4
20.4,159,-2.7,-3.4
20.4,159,-2.2,-3.2
20.4,159,-1.5,-2.8
20.4,159,-0.4,-2.4
20.4,159,0.8,-1.9
20.4,159,2.2,-1.3
20.4,159,3.6,-0.7
20.4,159,5,-0.1
20.4,159,6.3,0.5
20.4,159,7.5,1
20.4,159,8.3,1.4
20.4,159,8.9,1.8
20.5,159,9.2,2
20.5,159,9.3,2.1
20.5,159,9.1,2.1
20.5,159,8.7,2
20.5,159,8.1,1.8
20.5,159,7.4,1.6
20.5,159,6.5,1.3
20.5,160,5.6,1.1
20.5,160,4.6,0.8
20.5,160,3.6,0.5
20.5,160,2.7,0.2
20.5,160,1.8,0
20.5,160,1,-0.1
20.5,160,0.3,-0.1
20.5,160,-0.4,0
20.5,160,-0.9,0.2
20.5,160,-1.4,0.5
20.5,160,-1.8,1
20.5,160,-2,1.5
20.5,160,-2,2.1
20.5,160,-1.7,2.8
20.5,160,-1.3,3.5
20.5,160,-0.7,4.1
20.5,160,-0.2,4.5
20.5,160,0.3,4.8
20.6,160,0.8,5
20.6,160,1.1,4.9
20.6,160,1.3,4.8
20.6,160,1.3,4.5
20.6,160,1.2,4.1
20.6,160,1,3.7
20.6,160,0.6,3.2
20.6,160,0.1,2.6
20.6,160,-0.4,2
20.6,160,-1,1.4
20.6,160,-1.5,0.8
20.6,160,-2,0.4
20.6,160,-2.3,-0.1
20.6,160,-2.5,-0.5
20.6,161,-2.6,-0.8
20.6,161,-2.6,-1.2
20.6,161,-2.5,-1.4
20.6,161,-2.3,-1.6
20.6,161,-2,-1.8
20.6,161,-1.6,-1.8
20.6,161,-1.2,-1.8
20.6,161,-0.9,-1.6
20.6,161,-0.7,-1.5
20.6,161,-0.6,-1.2
20.6,161,-0.7,-0.8
20.7,161,-0.8,-0.5
20.7,161,-1.1,-0.1
20.7,161,-1.4,0.2
20.7,161,-1.7,0.5
20.7,161,-1.9,0.7
20.7,161,-2.1,0.8
20.7,161,-2.1,0.8
20.7,161,-2,0.8
20.7,161,-1.9,0.7
20.7,161,-1.7,0.7
20.7,161,-1.5,0.6
20.7,161,-1.3,0.6
20.7,161,-1.2,0.5
20.7,161,-1,0.5
20.7,161,-0.9,0.5
20.7,161,-0.7,0.5
20.7,161,-0.6,0.6
20.7,161,-0.5,0.6
20.7,161,-0.5,0.6
20.7,161,-0.6,0.6
20.7,161,-0.8,0.6
20.7,162,-1.1,0.5
20.7,162,-1.3,0.5
20.7,162,-1.5,0.5
20.7,162,-1.8,0.4
20.8,162,-1.9,0.3
20.8,162,-2,0.2
20.8,162,-2.1,-0.1
20.8,162,-2,-0.3
20.8,162,-2,-0.6
20.8,162,-1.9,-0.9
20.8,162,-1.8,-1.2
20.8,162,-1.8,-1.4
20.8,162,-1.8,-1.7
20.8,162,-1.9,-1.9
20.8,162,-2,-2
20.8,162,-2.2,-2.1
20.8,162,-2.4,-2.2
20.8,162,-2.6,-2.2
20.8,162,-2.8,-2.2
20.8,162,-2.9,-2.1
20.8,162,-3,-2.1
20.8,162,-3.1,-2
20.8,162,-3,-2
20.8,162,-2.8,-1.9
20.8,162,-2.5,-1.7
20.8,162,-2.1,-1.4
20.8,162,-1.7,-0.9
20.8,162,-1.2,-0.4
20.8,162,-0.7,0.2
20.9,162,-0.4,0.6
20.9,162,-0.1,1
20.9,162,0,1.1
20.9,163,0,0.9
20.9,163,-0.1,0.5
20.9,163,-0.3,-0.1
20.9,163,-0.6,-0.9
20.9,163,-0.9,-1.6
20.9,163,-1.4,-2.4
20.9,163,-2,-3.1
20.9,163,-2.7,-3.6
20.9,163,-3.3,-3.9
20.9,163,-3.9,-4.2
20.9,163,-4.4,-4.3
20.9,163,-4.7,-4.3
20.9,163,-4.8,-4.2
20.9,163,-4.6,-4.2
20.9,163,-4.1,-4.1
20.9,163,-3.5,-4.1
20.9,163,-2.7,-4.1
20.9,163,-2,-4.3
20.9,163,-1.3,-4.6
20.9,163,-0.7,-4.9
20.9,163,-0.2,-5.3
20.9,163,0.2,-5.7
21,163,0.4,-6
21,163,0.6,-6.3
21,163,0.6,-6.5
21,163,0.7,-6.5
21,163,0.7,-6.5
21,163,0.6,-6.4
21,163,0.5,-6.3
21,163,0.4,-6.1
21,163,0.1,-6
21,163,-0.1,-5.9
21,164,-0.5,-5.9
21,164,-0.9,-5.8
21,164,-1.2,-5.7
21,164,-1.4,-5.5
21,164,-1.5,-5.2
21,164,-1.6,-4.8
21,164,-1.6,-4.2
21,164,-1.5,-3.5
21,164,-1.5,-2.7
21,164,-1.4,-1.9
21,164,-1.4,-1.1
21,164,-1.3,-0.4
21,164,-1.3,0.2
21,164,-1.3,0.8
21,164,-1.3,1.2
21.1,164,-1.4,1.4
21.1,164,-1.6,1.6
21.1,164,-1.9,1.6
21.1,164,-2.3,1.4
21.1,164,-2.8,1.2
21.1,164,-3.4,0.8
21.1,164,-4,0.4
21.1,164,-4.5,-0.1
21.1,164,-5,-0.7
21.1,164,-5.4,-1.2
21.1,164,-5.7,-1.6
21.1,164,-5.8,-2.1
21.1,164,-5.7,-2.5
21.1,164,-5.4,-2.9
21.1,164,-4.9,-3.3
21.1,164,-4.3,-3.7
21.1,164,-3.6,-4.2
21.1,165,-2.8,-4.5
21.1,165,-2.1,-4.8
21.1,165,-1.4,-5
21.1,165,-0.7,-5.1
21.1,165,-0.1,-5.1
21.1,165,0.5,-5
21.1,165,0.9,-4.7
21.1,165,1.3,-4.3
21.2,165,1.5,-3.8
21.2,165,1.8,-3.2
21.2,165,2,-2.5
21.2,165,2.2,-1.8
21.2,165,2.3,-1.1
21.2,165,2.3,-0.4
21.2,165,2.4,0.4
21.2,165,2.3,1.1
21.2,165,2.2,1.8
21.2,165,2,2.5
21.2,165,1.8,3.2
21.2,165,1.5,3.8
21.2,165,1.3,4.2
21.2,165,1.1,4.6
21.2,165,1,4.8
21.2,165,0.9,4.8
21.2,165,0.9,4.8
21.2,165,0.9,4.7
21.2,165,0.9,4.5
21.2,165,1.1,4.4
21.2,165,1.3,4.2
21.2,165,1.5,4
21.2,165,1.8,3.8
21.2,165,1.9,3.6
21.2,166,2,3.5
21.3,166,2,3.3
21.3,166,1.8,3.2
21.3,166,1.5,3.2
21.3,166,1.3,3.2
21.3,166,1.1,3.3
21.3,166,1.1,3.6
21.3,166,1.3,3.9
21.3,166,1.6,4.4
21.3,166,2,4.9
21.3,166,2.6,5.4
21.3,166,3.2,5.9
21.3,166,3.8,6.4
21.3,166,4.6,6.9
21.3,166,5.4,7.4
21.3,166,6.2,7.8
21.3,166,7,8.1
21.3,166,7.7,8.3
21.3,166,8.3,8.4
21.3,166,8.7,8.4
21.3,166,9.1,8.3
21.3,166,9.3,8.3
21.3,166,9.4,8.2
21.3,166,9.3,8
21.3,166,9.2,7.9
21.3,166,9.1,7.9
21.4,166,9,7.9
21.4,166,9,7.9
21.4,166,9.2,8
21.4,166,9.3,8.1
21.4,166,9.5,8.1
21.4,166,9.6,8
21.4,167,9.6,7.8
21.4,167,9.6,7.5
21.4,167,9.5,7.1
21.4,167,9.3,6.7
21.4,167,9,6.2
21.4,167,8.7,5.7
21.4,167,8.2,5.3
21.4,167,7.8,4.9
21.4,167,7.3,4.5
21.4,167,6.9,4.2
21.4,167,6.5,4
21.4,167,6.2,3.7
21.4,167,5.9,3.5
21.4,167,5.8,3.3
21.4,167,5.7,3.1
21.4,167,5.6,2.9
21.4,167,5.6,2.7
21.4,167,5.5,2.5
21.4,167,5.4,2.3
21.5,167,5.3,2.2
21.5,167,5.2,2.1
21.5,167,5,2
21.5,167,4.6,1.9
21.5,167,4.1,1.9
21.5,167,3.5,1.8
21.5,167,2.8,1.8
21.5,167,2,1.8
21.5,167,1.2,1.8
21.5,167,0.3,1.7
21.5,167,-0.5,1.7
21.5,167,-1.3,1.7
21.5,167,-1.9,1.8
21.5,168,-2.5,1.9
21.5,168,-3,1.9
21.5,168,-3.4,2
21.5,168,-3.6,2
21.5,168,-3.8,2
21.5,168,-3.9,1.8
21.5,168,-3.9,1.6
21.5,168,-3.8,1.2
21.5,168,-3.6,0.8
21.5,168,-3.4,0.3
21.5,168,-3.1,-0.2
21.5,168,-2.8,-0.7
21.6,168,-2.5,-1.1
21.6,168,-2.2,-1.5
21.6,168,-1.9,-1.7
21.6,168,-1.6,-1.9
21.6,168,-1.4,-1.9
21.6,168,-1.2,-1.9
21.6,168,-1.1,-1.9
21.6,168,-1,-1.8
21.6,168,-1.2,-1.9
21.6,168,-1.4,-2
21.6,168,-1.7,-2.2
21.6,168,-2.2,-2.5
21.6,168,-2.7,-3
21.6,168,-3.3,-3.5
21.6,168,-3.8,-4.1
21.6,168,-4.3,-4.7
21.6,168,-4.7,-5.4
21.6,168,-5,-6.2
21.6,168,-5.2,-7.1
21.6,168,-5.3,-8.1
21.6,169,-5.3,-9.1
21.6,169,-5.2,-10
21.6,169,-5.1,-10.9
21.6,169,-5,-11.6
21.6,169,-5,-12.2
21.7,169,-4.9,-12.5
21.7,169,-4.9,-12.7
21.7,169,-4.8,-12.6
21.7,169,-4.8,-12.3
21.7,169,-4.7,-11.9
21.7,169,-4.7,-11.5
21.7,169,-4.7,-10.9
21.7,169,-4.6,-10.3
21.7,169,-4.5,-9.7
21.7,169,-4.3,-9
21.7,169,-4.2,-8.3
21.7,169,-4,-7.6
21.7,169,-3.7,-7
21.7,169,-3.4,-6.4
21.7,169,-3.1,-5.8
21.7,169,-2.8,-5.2
21.7,169,-2.5,-4.6
21.7,169,-2.2,-4
21.7,169,-2.1,-3.5
21.7,169,-1.9,-3
21.7,169,-1.8,-2.6
21.7,169,-1.8,-2.4
21.7,169,-1.8,-2.2
21.7,169,-1.9,-2.1
21.7,169,-2.1,-2.1
21.8,169,-2.4,-2.2
21.8,169,-2.7,-2.3
21.8,170,-3.2,-2.4
21.8,170,-3.7,-2.4
21.8,170,-4.2,-2.5
21.8,170,-4.8,-2.5
21.8,170,-5.5,-2.4
21.8,170,-6.2,-2.2
21.8,170,-7,-2.1
21.8,170,-7.8,-1.9
21.8,170,-8.4,-1.7
21.8,170,-8.9,-1.6
21.8,170,-9.2,-1.3
21.8,170,-9.3,-1.1
21.8,170,-9.1,-0.8
21.8,170,-8.9,-0.5
21.8,170,-8.6,-0.3
21.8,170,-8.2,-0.1
21.8,170,-7.9,-0.1
21.8,170,-7.6,-0.1
21.8,170,-7.4,-0.2
21.8,170,-7.4,-0.4
21.8,170,-7.3,-0.7
21.8,170,-7.3,-0.9
21.8,170,-7.4,-1.1
21.9,170,-7.4,-1.3
21.9,170,-7.5,-1.4
21.9,170,-7.6,-1.3
21.9,170,-7.8,-1.2
21.9,170,-8.1,-1
21.9,170,-8.4,-0.7
21.9,170,-8.8,-0.4
21.9,170,-9.2,0
21.9,170,-9.6,0.3
21.9,171,-10,0.7
21.9,171,-10.3,1.1
21.9,171,-10.5,1.6
21.9,171,-10.5,2.1
21.9,171,-10.3,2.6
21.9,171,-10,3.1
21.9,171,-9.6,3.5
21.9,171,-9.1,3.8
21.9,171,-8.5,3.9
21.9,171,-8,4
21.9,171,-7.5,4.1
21.9,171,-7,4.1
21.9,171,-6.6,4.1
21.9,171,-6.3,4.1
21.9,171,-6.1,4.1
21.9,171,-6.1,4.1
22,171,-6,4.2
22,171,-6,4.2
22,171,-6,4.3
22,171,-6,4.5
22,171,-5.8,4.6
22,171,-5.6,4.7
22,171,-5.3,4.7
22,171,-5,4.7
22,171,-4.7,4.5
22,171,-4.4,4.2
22,171,-4.1,3.7
22,171,-3.8,3.1
22,171,-3.5,2.3
22,171,-3.1,1.6
22,171,-2.7,0.8
22,171,-2.2,0.1
22,172,-1.7,-0.4
22,172,-1.2,-0.9
22,172,-0.7,-1.4
22,172,-0.2,-1.8
22,172,0.3,-2.2
22,172,0.9,-2.6
22,172,1.5,-2.9
22,172,2.2,-3.3
22,172,2.9,-3.6
22.1,172,3.7,-3.9
22.1,172,4.4,-4.1
22.1,172,5.1,-4.4
22.1,172,5.5,-4.6
22.1,172,5.7,-4.9
22.1,172,5.7,-5.1
22.1,172,5.6,-5.3
22.1,172,5.6,-5.3
22.1,172,6,-5.2
22.1,172,7,-5
22.1,172,8.6,-4.7
22.1,172,11,-4.1
22.1,172,14.5,-3.3
22.1,172,19.1,-2.2
22.1,172,24.9,-0.7
22.1,172,31.9,1.1
22.1,172,40,3.1
22.1,172,49.1,5.3
22.1,172,59,7.5
22.1,172,69.5,9.7
22.1,172,80.1,11.8
22.1,172,90.8,13.6
22.1,172,101.2,15.1
22.1,173,111.2,16.3
22.1,173,120.6,17.3
22.2,173,129.2,18.1
22.2,173,136.9,18.8
22.2,173,143.7,19.4
22.2,173,149.5,20.1
22.2,173,154.3,20.9
22.2,173,158,21.9
22.2,173,160.7,23.1
22.2,173,162.5,24.6
22.2,173,163.3,26.4
22.2,173,163.3,28.5
22.2,173,162.5,30.8
22.2,173,161,33.3
22.2,173,158.9,36.1
22.2,173,156,38.9
22.2,173,152.5,41.9
22.2,173,148.5,44.9
22.2,173,143.8,47.9
22.2,173,138.6,50.8
22.2,173,132.8,53.5
22.2,173,126.7,56
22.2,173,120.1,58.2
22.2,173,113.1,60.1
22.2,173,105.9,61.7
22.2,173,98.4,63
22.2,173,90.6,63.8
22.3,173,82.6,64.2
22.3,173,74.4,64.3
22.3,173,66,63.9
22.3,173,57.5,63.2
22.3,173,48.9,62.2
22.3,174,40.3,60.9
22.3,174,31.7,59.4
22.3,174,23,57.5
22.3,174,14.3,55.4
22.3,174,5.5,53
22.3,174,-3.4,50.2
22.3,174,-12.5,47
22.3,174,-21.7,43.5
22.3,174,-31.1,39.6
22.3,174,-40.7,35.3
22.3,174,-50.5,30.6
22.3,174,-60.5,25.7
22.3,174,-70.4,20.4
22.3,174,-80.3,15
22.3,174,-90,9.5
22.3,174,-99.5,4
22.3,174,-108.6,-1.3
22.3,174,-117.4,-6.6
22.3,174,-125.9,-11.7
22.3,174,-134,-16.6
22.4,174,-141.8,-21.4
22.4,174,-149.3,-26.1
22.4,174,-156.5,-30.6
22.4,174,-163.3,-35
22.4,174,-169.7,-39.3
22.4,174,-175.8,-43.5
22.4,174,-181.4,-47.5
22.4,174,-186.6,-51.4
22.4,174,-191.5,-55.2
22.4,174,-196,-58.8
22.4,174,-200.1,-62.2
22.4,174,-203.9,-65.5
22.4,175,-207.3,-68.6
22.4,175,-210.4,-71.5
22.4,175,-213.1,-74.2
22.4,175,-215.5,-76.8
22.4,175,-217.4,-79.2
22.4,175,-218.8,-81.4
22.4,175,-219.8,-83.3
22.4,175,-220.2,-85
22.4,175,-220.2,-86.4
22.4,175,-219.8,-87.4
22.4,175,-218.8,-88.3
22.4,175,-217.4,-88.8
22.4,175,-215.5,-89.2
22.5,175,-213.3,-89.4
22.5,175,-210.7,-89.5
22.5,175,-207.8,-89.5
22.5,175,-204.6,-89.4
22.5,175,-201.3,-89.2
22.5,175,-197.8,-88.9
22.5,175,-194.2,-88.6
22.5,175,-190.5,-88.2
22.5,175,-186.7,-87.6
22.5,175,-182.8,-87
22.5,175,-178.7,-86.2
22.5,175,-174.6,-85.3
22.5,175,-170.2,-84.3
22.5,175,-165.7,-83.1
22.5,175,-161,-81.8
22.5,175,-156.2,-80.3
22.5,175,-151.2,-78.7
22.5,175,-146.1,-76.9
22.5,175,-140.8,-74.9
22.5,176,-135.6,-72.7
22.5,176,-130.2,-70.3
22.5,176,-124.8,-67.8
22.5,176,-119.2,-65.3
22.5,176,-113.6,-62.6
22.5,176,-107.9,-60.1
22.6,176,-102,-57.6
22.6,176,-96.1,-55.2
22.6,176,-90.1,-52.8
22.6,176,-84,-50.6
22.6,176,-77.9,-48.4
22.6,176,-71.8,-46.3
22.6,176,-65.7,-44.1
22.6,176,-59.7,-42.1
22.6,176,-53.9,-40
22.6,176,-48.3,-38.1
22.6,176,-42.9,-36.2
22.6,176,-37.6,-34.4
22.6,176,-32.4,-32.7
22.6,176,-27.3,-30.9
22.6,176,-22.4,-29.2
22.6,176,-17.5,-27.4
22.6,176,-12.6,-25.7
22.6,176,-7.7,-23.8
22.6,176,-2.8,-21.9
22.6,176,2.1,-19.9
22.6,176,7,-17.8
22.6,176,11.8,-15.7
22.6,176,16.6,-13.5
22.6,176,21.2,-11.2
22.6,176,25.8,-8.9
22.7,176,30.1,-6.6
22.7,177,34.3,-4.3
22.7,177,38.4,-2
22.7,177,42.3,0.2
22.7,177,46,2.5
22.7,177,49.5,4.7
22.7,177,52.8,6.8
22.7,177,56,8.9
22.7,177,59,10.8
22.7,177,61.9,12.6
22.7,177,64.7,14.3
22.7,177,67.5,15.8
22.7,177,70.2,17.1
22.7,177,73.1,18.4
22.7,177,76,19.6
22.7,177,78.9,20.7
22.7,177,81.9,21.9
22.7,177,85,23.1
22.7,177,87.9,24.2
22.7,177,90.8,25.4
22.7,177,93.7,26.5
22.7,177,96.4,27.7
22.7,177,99.1,29
22.7,177,101.7,30.3
22.7,177,104.3,31.6
22.8,177,106.8,32.8
22.8,177,109.1,34
22.8,177,111.2,35.1
22.8,177,113.1,36.1
22.8,177,114.8,37
22.8,177,116.3,37.9
22.8,177,117.5,38.8
22.8,177,118.6,39.7
22.8,178,119.5,40.7
22.8,178,120.2,41.7
22.8,178,120.8,42.8
22.8,178,121.3,44
22.8,178,121.7,45.2
22.8,178,122,46.4
22.8,178,122.3,47.6
22.8,178,122.5,48.7
22.8,178,122.7,49.7
22.8,178,122.8,50.5
22.8,178,123,51.1
22.8,178,123.1,51.6
22.8,178,123.2,51.9
22.8,178,123.3,52
22.8,178,123.4,51.9
22.8,178,123.4,51.7
22.8,178,123.3,51.4
22.9,178,123.1,51
22.9,178,122.7,50.6
22.9,178,122.3,50.1
22.9,178,121.7,49.6
22.9,178,121,49.1
22.9,178,120.2,48.8
22.9,178,119.3,48.5
22.9,178,118.2,48.2
22.9,178,117,48.1
22.9,178,115.6,48
22.9,178,114.1,47.8
22.9,178,112.5,47.6
22.9,178,110.7,47.3
22.9,178,108.7,46.8
22.9,178,106.5,46.2
22.9,179,104.3,45.4
22.9,179,102.1,44.5
22.9,179,100.1,43.6
22.9,179,98.1,42.7
22.9,179,96.3,41.8
22.9,179,94.6,40.9
22.9,179,93.1,40.1
22.9,179,91.6,39.3
22.9,179,90.2,38.6
22.9,179,88.9,38.1
23,179,87.7,37.7
23,179,86.5,37.4
23,179,85.1,37.2
23,179,83.7,37.2
23,179,82.2,37.2
23,179,80.6,37.2
23,179,79,37.2
23,179,77.5,37.3
23,179,76,37.4
23,179,74.7,37.4
23,179,73.5,37.4
23,179,72.3,37.2
23,179,71.1,36.8
23,179,69.9,36.3
23,179,68.6,35.6
23,179,67.3,34.9
23,179,65.9,34
23,179,64.4,33.2
23,179,62.8,32.3
23,179,61.1,31.3
23,179,59.4,30.3
23,179,57.5,29.2
23,180,55.5,28.1
23,180,53.5,26.9
23,180,51.3,25.7
23.1,180,48.9,24.4
23.1,180,46.5,23
23.1,180,43.9,21.7
23.1,180,41.3,20.4
23.1,180,38.7,19.2
23.1,180,36.1,18.2
23.1,180,33.6,17.3
23.1,180,31.2,16.6
23.1,180,28.9,16
23.1,180,26.7,15.5
23.1,180,24.5,15.1
23.1,180,22.3,14.7
23.1,180,20.2,14.2
23.1,180,18.1,13.7
23.1,180,16,13.2
23.1,180,14,12.6
23.1,180,11.9,12.1
23.1,180,9.8,11.6
23.1,180,7.7,11
23.1,180,5.5,10.5
23.1,180,3.2,9.9
23.1,180,1,9.2
23.1,180,-1.3,8.4
23.1,180,-3.5,7.6
23.1,180,-5.6,6.7
23.2,180,-7.7,5.7
23.2,180,-9.6,4.8
23.2,180,-11.3,3.9
23.2,180,-12.7,3.1
23.2,181,-14,2.3
23.2,181,-15.1,1.5
23.2,181,-16,0.8
23.2,181,-16.7,0.1
23.2,181,-17.3,-0.6
23.2,181,-17.8,-1.4
23.2,181,-18.2,-2.1
23.2,181,-18.7,-2.9
23.2,181,-19.2,-3.7
23.2,181,-19.9,-4.5
23.2,181,-20.6,-5.3
23.2,181,-21.5,-6.1
23.2,181,-22.4,-6.8
23.2,181,-23.5,-7.5
23.2,181,-24.6,-8.2
23.2,181,-25.9,-8.9
23.2,181,-27.3,-9.6
23.2,181,-28.7,-10.3
23.2,181,-30.1,-10.8
23.2,181,-31.5,-11.2
23.2,181,-32.6,-11.3
23.3,181,-33.6,-11.3
23.3,181,-34.3,-11.2
23.3,181,-34.7,-11
23.3,181,-34.9,-10.7
23.3,181,-34.8,-10.4
23.3,181,-34.6,-10.3
23.3,181,-34.3,-10.2
23.3,181,-34,-10.3
23.3,181,-33.6,-10.4
23.3,181,-33.3,-10.7
23.3,181,-33,-10.9
23.3,182,-32.8,-11.3
23.3,182,-32.6,-11.7
23.3,182,-32.6,-12.2
23.3,182,-32.7,-12.8
23.3,182,-33,-13.6
23.3,182,-33.6,-14.4
23.3,182,-34.4,-15.4
23.3,182,-35.2,-16.3
23.3,182,-36.2,-17.2
23.3,182,-37.1,-17.9
23.3,182,-38,-18.4
23.3,182,-38.8,-18.7
23.3,182,-39.3,-18.9
23.3,182,-39.6,-18.8
23.4,182,-39.7,-18.6
23.4,182,-39.5,-18.2
23.4,182,-39.2,-17.7
23.4,182,-38.7,-17.2
23.4,182,-38.2,-16.8
23.4,182,-37.7,-16.5
23.4,182,-37.3,-16.3
23.4,182,-37,-16.3
23.4,182,-36.8,-16.4
23.4,182,-36.8,-16.8
23.4,182,-37,-17.3
23.4,182,-37.3,-17.9
23.4,182,-37.8,-18.6
23.4,182,-38.4,-19.3
23.4,182,-39.1,-20.1
23.4,182,-39.9,-20.8
23.4,182,-40.6,-21.4
23.4,182,-41.3,-21.9
23.4,183,-41.9,-22.2
23.4,183,-42.3,-22.5
23.4,183,-42.7,-22.8
23.4,183,-42.8,-22.9
23.4,183,-42.7,-22.9
23.4,183,-42.5,-22.8
23.4,183,-42,-22.6
23.5,183,-41.4,-22.3
23.5,183,-40.5,-21.8
23.5,183,-39.5,-21.3
23.5,183,-38.3,-20.7
23.5,183,-37,-20
23.5,183,-35.6,-19.3
23.5,183,-34.2,-18.7
23.5,183,-33,-18
23.5,183,-31.9,-17.4
23.5,183,-31.1,-16.9
23.5,183,-30.5,-16.4
23.5,183,-30.2,-16.1
23.5,183,-30.1,-15.9
23.5,183,-30.3,-15.7
23.5,183,-30.6,-15.5
23.5,183,-31,-15.3
23.5,183,-31.5,-15
23.5,183,-31.9,-14.6
23.5,183,-32.2,-14.1
23.5,183,-32.3,-13.4
23.5,183,-32.1,-12.7
23.5,183,-31.6,-11.9
23.5,183,-30.9,-11
23.5,183,-30,-10.2
23.5,183,-28.9,-9.5
23.6,184,-27.6,-8.8
23.6,184,-26.3,-8.3
23.6,184,-25,-7.8
23.6,184,-23.7,-7.5
23.6,184,-22.4,-7.2
23.6,184,-21.3,-7
23.6,184,-20.3,-7
23.6,184,-19.6,-7
23.6,184,-19,-7.1
23.6,184,-18.7,-7.3
23.6,184,-18.5,-7.5
23.6,184,-18.4,-7.7
23.6,184,-18.5,-7.8
23.6,184,-18.6,-7.8
23.6,184,-18.7,-7.8
23.6,184,-18.9,-7.8
23.6,184,-19,-7.6
23.6,184,-19,-7.3
23.6,184,-19,-6.9
23.6,184,-18.8,-6.5
23.6,184,-18.5,-6.1
23.6,184,-18,-5.6
23.6,184,-17.4,-5.1
23.6,184,-16.7,-4.6
23.6,184,-15.9,-4.1
23.7,184,-15.1,-3.7
23.7,184,-14.3,-3.3
23.7,184,-13.4,-2.9
23.7,184,-12.6,-2.6
23.7,184,-11.8,-2.3
23.7,184,-11,-2.1
23.7,184,-10.4,-2.1
23.7,185,-9.9,-2.1
23.7,185,-9.5,-2.3
23.7,185,-9.2,-2.7
23.7,185,-9.1,-3.1
23.7,185,-9.1,-3.7
23.7,185,-9,-4.2
23.7,185,-8.8,-4.7
23.7,185,-8.4,-5
23.7,185,-7.9,-5.2
23.7,185,-7.1,-5.3
23.7,185,-6.2,-5.2
23.7,185,-5.2,-4.9
23.7,185,-4.1,-4.5
23.7,185,-3.1,-4
23.7,185,-2.1,-3.3
23.7,185,-1.1,-2.5
23.7,185,-0.1,-1.7
23.7,185,0.8,-0.8
23.8,185,1.6,0.1
23.8,185,2.3,0.9
23.8,185,2.9,1.6
23.8,185,3.5,2.2
23.8,185,4,2.8
23.8,185,4.5,3.2
23.8,185,5,3.6
23.8,185,5.4,3.9
23.8,185,5.7,4.1
23.8,185,6,4.4
23.8,185,6.3,4.7
23.8,185,6.5,5.1
23.8,185,6.8,5.5
23.8,185,7,6
23.8,186,7.3,6.6
23.8,186,7.5,7.2
23.8,186,7.6,7.8
23.8,186,7.7,8.4
23.8,186,7.6,9
23.8,186,7.4,9.5
23.8,186,7.3,10
23.8,186,7.1,10.4
23.8,186,7.1,10.8
23.8,186,7,11.1
23.8,186,7,11.2
23.9,186,7,11.2
23.9,186,6.9,11
23.9,186,6.9,10.8
23.9,186,7,10.5
23.9,186,7.1,10.3
23.9,186,7.2,10.1
23.9,186,7.5,9.9
23.9,186,7.8,9.8
23.9,186,8.1,9.6
23.9,186,8.5,9.5
23.9,186,9,9.3
23.9,186,9.4,9.1
23.9,186,9.8,8.9
23.9,186,10.2,8.7
23.9,186,10.6,8.4
23.9,186,10.8,8
23.9,186,10.9,7.5
23.9,186,10.9,7
23.9,186,10.6,6.4
23.9,186,10.1,5.6
23.9,186,9.4,4.8
23.9,187,8.5,3.8
23.9,187,7.4,2.8
23.9,187,6.3,1.8
23.9,187,5.1,0.7
24,187,3.9,-0.4
24,187,2.9,-1.5
24,187,2,-2.6
24,187,1.3,-3.6
24,187,0.8,-4.6
24,187,0.5,-5.3
24,187,0.3,-6
24,187,0.3,-6.4
24,187,0.4,-6.6
24,187,0.6,-6.6
24,187,0.9,-6.6
24,187,1.2,-6.4
24,187,1.5,-6.1
24,187,1.8,-5.8
24,187,2.1,-5.5
24,187,2.3,-5.1
24,187,2.4,-4.6
24,187,2.5,-4.1
24,187,2.4,-3.7
24,187,2.1,-3.3
24,187,1.8,-2.8
24,187,1.5,-2.3
24,187,1.1,-1.8
24,187,0.7,-1.3
24,187,0.4,-0.7
24.1,187,0.1,-0.1
24.1,187,-0.2,0.4
24.1,187,-0.3,0.8
24.1,188,-0.4,1.2
24.1,188,-0.4,1.4
24.1,188,-0.2,1.7
24.1,188,0.1,1.8
24.1,188,0.4,1.9
24.1,188,0.8,1.9
24.1,188,1.2,1.9
24.1,188,1.5,1.7
24.1,188,1.7,1.3
24.1,188,1.8,0.9
24.1,188,1.7,0.3
24.1,188,1.5,-0.3
24.1,188,1.1,-1
24.1,188,0.5,-1.6
24.1,188,-0.1,-2.1
24.1,188,-0.8,-2.5
24.1,188,-1.4,-2.7
24.1,188,-2,-2.7
24.1,188,-2.4,-2.6
24.1,188,-2.6,-2.3
24.1,188,-2.5,-1.9
24.1,188,-2.2,-1.5
24.2,188,-1.7,-1
24.2,188,-0.9,-0.5
24.2,188,0.1,-0.1
24.2,188,1.1,0.3
24.2,188,2.1,0.6
24.2,188,2.9,0.9
24.2,188,3.6,1
24.2,188,4,1.1
24.2,188,4.1,1.1
24.2,188,4.1,1
24.2,189,3.9,0.9
24.2,189,3.5,0.8
24.2,189,3.1,0.6
24.2,189,2.5,0.5
24.2,189,1.9,0.3
24.2,189,1.3,0.2
24.2,189,0.6,0.2
24.2,189,-0.1,0.2
24.2,189,-0.6,0.2
24.2,189,-1,0.2
24.2,189,-1.3,0.3
24.2,189,-1.4,0.4
24.2,189,-1.3,0.5
24.2,189,-1.1,0.6
24.2,189,-0.9,0.7
24.3,189,-0.7,0.7
24.3,189,-0.6,0.7
24.3,189,-0.5,0.5
24.3,189,-0.6,0.4
24.3,189,-0.7,0.2
24.3,189,-0.8,-0.1
24.3,189,-1,-0.3
24.3,189,-1.2,-0.6
24.3,189,-1.4,-1
24.3,189,-1.6,-1.5
24.3,189,-1.8,-1.9
24.3,189,-2,-2.5
24.3,189,-2.3,-3
24.3,189,-2.8,-3.4
24.3,189,-3.4,-3.9
24.3,189,-4.1,-4.3
24.3,189,-5,-4.8
24.3,190,-5.8,-5.2
24.3,190,-6.6,-5.6
24.3,190,-7.2,-5.9
24.3,190,-7.7,-6.2
24.3,190,-7.9,-6.4
24.3,190,-8,-6.4
24.3,190,-8,-6.4
24.3,190,-7.9,-6.4
24.4,190,-7.7,-6.2
24.4,190,-7.4,-5.9
24.4,190,-7,-5.6
24.4,190,-6.7,-5.3
24.4,190,-6.3,-4.9
24.4,190,-5.9,-4.5
24.4,190,-5.5,-4.2
24.4,190,-5.2,-4.1
24.4,190,-4.9,-4.2
24.4,190,-4.6,-4.4
24.4,190,-4.3,-4.7
24.4,190,-4.1,-5
24.4,190,-3.9,-5.5
24.4,190,-3.7,-5.8
24.4,190,-3.6,-6
24.4,190,-3.3,-6.1
24.4,190,-3.1,-6
24.4,190,-3,-5.8
24.4,190,-2.9,-5.5
24.4,190,-3,-5.1
24.4,190,-3.1,-4.6
24.4,190,-3.3,-4
24.4,190,-3.5,-3.4
24.4,190,-3.6,-2.9
24.4,191,-3.6,-2.4
24.5,191,-3.7,-2
24.5,191,-3.6,-1.9
24.5,191,-3.6,-1.8
24.5,191,-3.4,-1.8
24.5,191,-3.2,-1.9
24.5,191,-2.9,-1.9
24.5,191,-2.5,-2
24.5,191,-2.1,-2.1
24.5,191,-1.7,-2.2
24.5,191,-1.3,-2.4
24.5,191,-0.8,-2.5
24.5,191,-0.3,-2.6
24.5,191,0.1,-2.6
24.5,191,0.4,-2.6
24.5,191,0.6,-2.6
24.5,191,0.7,-2.7
24.5,191,0.6,-2.7
24.5,191,0.6,-2.7
24.5,191,0.5,-2.6
24.5,191,0.6,-2.4
24.5,191,0.8,-2
24.5,191,1.1,-1.4
24.5,191,1.5,-0.6
24.5,191,2,0.3
24.5,191,2.5,1.3
24.6,191,3,2.4
24.6,191,3.5,3.4
24.6,191,3.9,4.5
24.6,191,4.1,5.5
24.6,191,4.3,6.5
24.6,191,4.3,7.3
24.6,192,4.2,7.8
24.6,192,3.9,8.1
24.6,192,3.4,8
24.6,192,2.9,7.5
24.6,192,2.2,6.7
24.6,192,1.5,5.7
24.6,192,0.8,4.5
24.6,192,0.2,3.2
24.6,192,-0.3,2
24.6,192,-0.7,0.8
24.6,192,-1.1,-0.3
24.6,192,-1.2,-1.2
24.6,192,-1.3,-1.9
24.6,192,-1.3,-2.4
24.6,192,-1.3,-2.9
24.6,192,-1.2,-3.2
24.6,192,-1.2,-3.4
24.6,192,-1.3,-3.4
24.6,192,-1.4,-3.3
24.7,192,-1.4,-2.9
24.7,192,-1.4,-2.3
24.7,192,-1.4,-1.6
24.7,192,-1.4,-0.7
24.7,192,-1.3,0.2
24.7,192,-1.1,1.1
24.7,192,-0.8,2.1
24.7,192,-0.5,3.1
24.7,192,-0.1,4
24.7,192,0.3,4.8
24.7,192,0.6,5.6
24.7,192,0.9,6.3
24.7,192,1,6.8
24.7,193,1.1,7.4
24.7,193,1.2,7.9
24.7,193,1.2,8.3
24.7,193,1.3,8.8
24.7,193,1.4,9.1
24.7,193,1.5,9.2
24.7,193,1.6,9.1
24.7,193,1.6,8.8
24.7,193,1.6,8.4
24.7,193,1.7,7.8
24.7,193,1.8,7.1
24.7,193,1.9,6.3
24.8,193,2.1,5.5
24.8,193,2.3,4.6
24.8,193,2.5,3.8
24.8,193,2.6,3
24.8,193,2.6,2.2
24.8,193,2.6,1.6
24.8,193,2.5,1.1
24.8,193,2.3,0.8
24.8,193,2.2,0.6
24.8,193,2,0.5
24.8,193,1.8,0.6
24.8,193,1.8,0.7
24.8,193,1.8,0.9
24.8,193,1.9,1.1
24.8,193,2,1.2
24.8,193,2.1,1.2
24.8,193,2.2,1.2
24.8,193,2.1,1.1
24.8,193,1.9,0.9
24.8,193,1.7,0.7
24.8,194,1.4,0.5
24.8,194,1,0.4
24.8,194,0.6,0.2
24.8,194,0.1,-0.1
24.8,194,-0.4,-0.3
24.9,194,-0.8,-0.7
24.9,194,-1.1,-1
24.9,194,-1.3,-1.2
24.9,194,-1.2,-1.3
24.9,194,-1,-1.3
24.9,194,-0.5,-1.1
24.9,194,0,-0.8
24.9,194,0.7,-0.2
24.9,194,1.4,0.4
24.9,194,2.2,1.1
24.9,194,2.8,1.7
24.9,194,3.5,2.2
24.9,194,4.2,2.5
24.9,194,4.8,2.8
24.9,194,5.3,2.9
24.9,194,5.6,2.9
24.9,194,5.8,2.8
24.9,194,5.8,2.5
24.9,194,5.6,2.1
24.9,194,5.3,1.5
24.9,194,4.9,0.8
24.9,194,4.4,0
24.9,194,4,-0.6
24.9,194,3.6,-1.1
24.9,194,3.3,-1.5
25,194,3.2,-1.6
25,194,3.1,-1.6
25,195,3.2,-1.4
25,195,3.4,-1.1
25,195,3.7,-0.7
25,195,3.9,-0.3
25,195,4.1,0.3
25,195,4.3,0.8
25,195,4.3,1.3
25,195,4.2,1.8
25,195,3.9,2.2
25,195,3.5,2.4
25,195,3,2.6
25,195,2.4,2.7
25,195,1.7,2.7
25,195,1,2.7
25,195,0.3,2.7
25,195,-0.3,2.6
25,195,-0.8,2.6
25,195,-1.2,2.5
25,195,-1.5,2.4
25,195,-1.7,2.3
25,195,-1.7,2.3
25,195,-1.4,2.4
25,195,-1,2.6
25.1,195,-0.4,2.8
25.1,195,0.4,3
25.1,195,1.3,3.1
25.1,195,2.1,3.3
25.1,195,2.9,3.4
25.1,195,3.6,3.4
25.1,195,4,3.4
25.1,195,4.1,3.2
25.1,195,4,3
25.1,196,3.6,2.6
25.1,196,2.9,2.2
25.1,196,2.2,1.8
25.1,196,1.5,1.3
25.1,196,0.7,0.7
25.1,196,0.1,0.1
25.1,196,-0.6,-0.5
25.1,196,-1.1,-1.1
25.1,196,-1.6,-1.7
25.1,196,-2,-2.3
25.1,196,-2.2,-2.9
25.1,196,-2.3,-3.4
25.1,196,-2.3,-4
25.1,196,-2.1,-4.4
25.1,196,-1.7,-4.8
25.1,196,-1.2,-5
25.2,196,-0.5,-5.2
25.2,196,0.1,-5.2
25.2,196,0.8,-5
25.2,196,1.4,-4.8
25.2,196,1.9,-4.5
25.2,196,2.3,-4.3
25.2,196,2.5,-4
25.2,196,2.6,-3.9
25.2,196,2.6,-3.7
25.2,196,2.4,-3.7
25.2,196,2,-3.7
25.2,196,1.5,-3.6
25.2,196,0.8,-3.5
25.2,196,0,-3.4
25.2,196,-0.8,-3.3
25.2,196,-1.6,-3.2
25.2,197,-2.3,-3.2
25.2,197,-3,-3.2
25.2,197,-3.6,-3.3
25.2,197,-4.1,-3.3
25.2,197,-4.4,-3.2
25.2,197,-4.5,-3.1
25.2,197,-4.5,-3
25.2,197,-4.3,-2.8
25.2,197,-4.1,-2.6
25.3,197,-3.7,-2.5
25.3,197,-3.4,-2.3
25.3,197,-3,-2.1
25.3,197,-2.6,-1.9
25.3,197,-2.2,-1.8
25.3,197,-2,-1.8
25.3,197,-1.8,-1.9
25.3,197,-1.7,-2.1
25.3,197,-1.8,-2.5
25.3,197,-1.9,-2.9
25.3,197,-2,-3.4
25.3,197,-2.1,-3.9
25.3,197,-2.2,-4.4
25.3,197,-2.1,-4.9
25.3,197,-1.9,-5.3
25.3,197,-1.5,-5.7
25.3,197,-1,-5.9
25.3,197,-0.4,-5.9
25.3,197,0.3,-5.9
25.3,197,1,-5.6
25.3,197,1.6,-5.2
25.3,197,2.3,-4.7
25.3,197,2.8,-4
25.3,198,3.1,-3.3
25.3,198,3.3,-2.7
25.4,198,3.3,-2.2
25.4,198,3.1,-1.7
25.4,198,2.7,-1.4
25.4,198,2.1,-1.2
25.4,198,1.5,-1.2
25.4,198,0.8,-1.3
25.4,198,0.2,-1.4
25.4,198,-0.2,-1.7
25.4,198,-0.5,-1.8
25.4,198,-0.6,-2
25.4,198,-0.6,-1.9
25.4,198,-0.2,-1.7
25.4,198,0.3,-1.3
25.4,198,1,-0.8
25.4,198,1.9,-0.1
25.4,198,2.8,0.7
25.4,198,3.8,1.6
25.4,198,4.8,2.5
25.4,198,5.6,3.4
25.4,198,6.2,4.1
25.4,198,6.6,4.8
25.4,198,6.8,5.3
25.4,198,6.7,5.7
25.4,198,6.4,6.1
25.4,198,5.9,6.3
25.5,198,5.3,6.4
25.5,198,4.7,6.3
25.5,198,4,6.1
25.5,198,3.3,5.8
25.5,198,2.8,5.2
25.5,199,2.5,4.5
25.5,199,2.4,3.7
25.5,199,2.3,2.7
25.5,199,1.8,1.7
25.5,199,1,0.5
25.5,199,-0.4,-0.8
25.5,199,-2.4,-2.3
25.5,199,-5.1,-4
25.5,199,-8.6,-5.9
25.5,199,-13,-8.1
25.5,199,-18.3,-10.7
25.5,199,-24.5,-13.6
25.5,199,-31.4,-17.1
25.5,199,-39,-20.9
25.5,199,-47.2,-25.2
25.5,199,-55.9,-29.9
25.5,199,-65,-34.9
25.5,199,-74.2,-40.2
25.5,199,-83.6,-45.7
25.5,199,-92.9,-51.2
25.6,199,-102,-56.6
25.6,199,-110.7,-61.8
25.6,199,-118.9,-66.7
25.6,199,-126.6,-71
25.6,199,-133.7,-74.7
25.6,199,-140,-77.7
25.6,199,-145.6,-80
25.6,199,-150.3,-81.4
25.6,199,-154.1,-82
25.6,199,-157,-81.9
25.6,199,-159,-80.9
25.6,199,-160.1,-79.3
25.6,200,-160.2,-76.9
25.6,200,-159.4,-73.9
25.6,200,-157.6,-70.4
25.6,200,-155,-66.3
25.6,200,-151.6,-61.9
25.6,200,-147.6,-57.1
25.6,200,-142.9,-52.1
25.6,200,-137.6,-46.9
25.6,200,-131.8,-41.6
25.6,200,-125.6,-36.2
25.6,200,-119,-30.7
25.6,200,-112,-25.4
25.6,200,-104.6,-20.2
25.7,200,-96.9,-15.1
25.7,200,-88.9,-10.2
25.7,200,-80.5,-5.5
25.7,200,-71.8,-1.1
25.7,200,-63,3.2
25.7,200,-54,7.3
25.7,200,-44.9,11.3
25.7,200,-35.7,15.1
25.7,200,-26.3,18.9
25.7,200,-16.7,22.7
25.7,200,-7.1,26.4
25.7,200,2.7,30.2
25.7,200,12.6,33.9
25.7,200,22.5,37.7
25.7,200,32.4,41.4
25.7,200,42.3,45.2
25.7,200,52.2,49.1
25.7,200,62,53
25.7,200,71.7,56.9
25.7,201,81.3,60.9
25.7,201,90.8,64.8
25.7,201,100.1,68.6
25.7,201,109,72.3
25.7,201,117.7,75.8
25.7,201,125.9,79.1
25.8,201,133.8,82.2
25.8,201,141.2,85
25.8,201,148.3,87.6
25.8,201,155.1,89.9
25.8,201,161.4,92
25.8,201,167.3,93.8
25.8,201,172.7,95.3
25.8,201,177.6,96.6
25.8,201,182.1,97.5
25.8,201,186,98.3
25.8,201,189.5,98.8
25.8,201,192.5,99.1
25.8,201,195.2,99.2
25.8,201,197.4,99.1
25.8,201,199.4,99
25.8,201,201.1,98.7
25.8,201,202.6,98.3
25.8,201,203.8,97.7
25.8,201,204.7,96.9
25.8,201,205.4,95.9
25.8,201,205.7,94.6
25.8,201,205.7,93.1
25.8,201,205.4,91.3
25.8,201,204.6,89.2
25.8,201,203.5,86.8
25.9,201,202,84.3
25.9,202,200.3,81.5
25.9,202,198.2,78.8
25.9,202,196,75.9
25.9,202,193.6,73.2
25.9,202,191,70.5
25.9,202,188.4,67.8
25.9,202,185.6,65.2
25.9,202,182.7,62.7
25.9,202,179.7,60.2
25.9,202,176.6,57.7
25.9,202,173.3,55.3
25.9,202,169.9,52.9
25.9,202,166.2,50.5
25.9,202,162.4,48.1
25.9,202,158.4,45.7
25.9,202,154.2,43.3
25.9,202,149.7,40.9
25.9,202,145,38.5
25.9,202,140.1,36
25.9,202,135,33.6
25.9,202,129.8,31.2
25.9,202,124.5,28.9
25.9,202,119,26.4
25.9,202,113.6,24
26,202,108,21.5
26,202,102.4,18.9
26,202,96.8,16.2
26,202,91.1,13.4
26,202,85.4,10.5
26,202,79.7,7.7
26,202,74.2,4.9
26,202,68.8,2.1
26,203,63.4,-0.6
26,203,58.2,-3.2
26,203,53.1,-5.7
26,203,48.2,-8.1
26,203,43.4,-10.3
26,203,38.8,-12.4
26,203,34.4,-14.4
26,203,30.1,-16.3
26,203,25.9,-18.1
26,203,21.8,-20
26,203,17.9,-21.8
26,203,13.9,-23.7
26,203,9.9,-25.6
26,203,6,-27.5
26,203,2,-29.4
26,203,-2.1,-31.3
26,203,-6.3,-33.2
26.1,203,-10.5,-35
26.1,203,-14.8,-36.8
26.1,203,-19,-38.4
26.1,203,-23.1,-39.7
26.1,203,-27,-40.9
26.1,203,-30.7,-41.9
26.1,203,-34.2,-42.8
26.1,203,-37.5,-43.5
26.1,203,-40.6,-44
26.1,203,-43.6,-44.5
26.1,203,-46.5,-44.8
26.1,203,-49.3,-45.1
26.1,203,-52.1,-45.3
26.1,203,-54.9,-45.5
26.1,203,-57.8,-45.8
26.1,204,-60.8,-46
26.1,204,-63.8,-46.3
26.1,204,-66.9,-46.6
26.1,204,-70,-46.8
26.1,204,-73.2,-47
26.1,204,-76.5,-47.2
26.1,204,-79.8,-47.5
26.1,204,-83.2,-47.8
26.1,204,-86.6,-48.1
26.1,204,-90.1,-48.5
26.2,204,-93.6,-48.9
26.2,204,-97,-49.3
26.2,204,-100.4,-49.8
26.2,204,-103.7,-50.2
26.2,204,-107,-50.7
26.2,204,-110.2,-51.2
26.2,204,-113.2,-51.7
26.2,204,-116,-52.2
26.2,204,-118.5,-52.6
26.2,204,-120.5,-52.9
26.2,204,-122.2,-53.1
26.2,204,-123.4,-53.1
26.2,204,-124.3,-53
26.2,204,-124.8,-52.8
26.2,204,-124.9,-52.4
26.2,204,-124.7,-51.8
26.2,204,-124.2,-51.2
26.2,204,-123.4,-50.3
26.2,204,-122.5,-49.4
26.2,204,-121.4,-48.4
26.2,204,-120.4,-47.3
26.2,204,-119.3,-46.2
26.2,205,-118.4,-45.2
26.2,205,-117.6,-44.2
26.2,205,-116.8,-43.1
26.3,205,-116.1,-42.1
26.3,205,-115.5,-41.1
26.3,205,-114.8,-40
26.3,205,-114,-39
26.3,205,-113.2,-37.9
26.3,205,-112.4,-36.9
26.3,205,-111.5,-36
26.3,205,-110.7,-35.1
26.3,205,-109.8,-34.2
26.3,205,-109,-33.4
26.3,205,-108.2,-32.7
26.3,205,-107.5,-32.1
26.3,205,-107,-31.6
26.3,205,-106.5,-31.1
26.3,205,-106.1,-30.7
26.3,205,-105.6,-30.3
26.3,205,-105.1,-29.8
26.3,205,-104.5,-29.4
26.3,205,-103.8,-29
26.3,205,-102.9,-28.6
26.3,205,-101.8,-28.2
26.3,205,-100.5,-27.9
26.3,205,-99,-27.6
26.3,205,-97.2,-27.3
26.3,205,-95.2,-26.9
26.4,205,-92.9,-26.3
26.4,205,-90.5,-25.7
26.4,205,-88,-24.9
26.4,205,-85.4,-24
26.4,206,-83,-23.1
26.4,206,-80.7,-22.2
26.4,206,-78.6,-21.3
26.4,206,-76.6,-20.4
26.4,206,-75,-19.5
26.4,206,-73.6,-18.7
26.4,206,-72.6,-18
26.4,206,-71.9,-17.4
26.4,206,-71.4,-16.8
26.4,206,-71,-16.1
26.4,206,-70.6,-15.5
26.4,206,-70.1,-14.8
26.4,206,-69.4,-14
26.4,206,-68.4,-13.3
26.4,206,-67.2,-12.4
26.4,206,-65.8,-11.5
26.4,206,-64.1,-10.6
26.4,206,-62.2,-9.7
26.4,206,-60.2,-8.8
26.4,206,-58,-7.8
26.4,206,-55.6,-6.9
26.5,206,-53.1,-6.1
26.5,206,-50.5,-5.4
26.5,206,-47.9,-4.7
26.5,206,-45.3,-4.1
26.5,206,-42.7,-3.5
26.5,206,-40.2,-2.8
26.5,206,-37.7,-2.1
26.5,206,-35.2,-1.4
26.5,206,-32.9,-0.7
26.5,206,-30.6,0.1
26.5,206,-28.5,0.8
26.5,207,-26.5,1.4
26.5,207,-24.6,2
26.5,207,-22.8,2.4
26.5,207,-21.2,2.7
26.5,207,-19.8,2.9
26.5,207,-18.4,3.2
26.5,207,-17,3.4
26.5,207,-15.7,3.7
26.5,207,-14.4,4
26.5,207,-13.1,4.2
26.5,207,-11.8,4.6
26.5,207,-10.4,5
26.5,207,-9,5.4
26.5,207,-7.6,5.9
26.6,207,-6.3,6.4
26.6,207,-5.1,7
26.6,207,-4,7.7
26.6,207,-3.1,8.4
26.6,207,-2.3,9.1
26.6,207,-1.6,9.8
26.6,207,-1,10.3
26.6,207,-0.5,10.9
26.6,207,-0.1,11.4
26.6,207,0.3,11.9
26.6,207,0.9,12.4
26.6,207,1.6,13
26.6,207,2.5,13.5
26.6,207,3.6,14.1
26.6,207,5,14.7
26.6,207,6.5,15.2
26.6,207,8.2,15.7
26.6,207,10,16.1
26.6,208,11.8,16.4
26.6,208,13.7,16.5
26.6,208,15.5,16.4
26.6,208,17.3,16.2
26.6,208,18.9,15.9
26.6,208,20.3,15.5
26.6,208,21.6,14.9
26.7,208,22.6,14.4
26.7,208,23.5,13.9
26.7,208,24.3,13.4
26.7,208,24.9,13
26.7,208,25.5,12.8
26.7,208,25.9,12.6
26.7,208,26.3,12.5
26.7,208,26.7,12.4
26.7,208,27.1,12.4
26.7,208,27.6,12.4
26.7,208,28.2,12.5
26.7,208,28.9,12.6
26.7,208,29.8,12.8
26.7,208,30.8,12.9
26.7,208,31.8,13
26.7,208,33,13
26.7,208,34.1,13
26.7,208,35.3,13.1
26.7,208,36.4,13.1
26.7,208,37.3,13.1
26.7,208,38,13.2
26.7,208,38.5,13.1
26.7,208,38.6,13
26.7,208,38.4,12.9
26.7,208,38,12.8
26.8,209,37.5,12.8
26.8,209,36.9,12.9
26.8,209,36.3,13.1
26.8,209,35.6,13.4
26.8,209,35.1,13.8
26.8,209,34.5,14.4
26.8,209,34.1,15
26.8,209,33.9,15.6
26.8,209,33.7,16.3
26.8,209,33.8,16.8
26.8,209,34,17.2
26.8,209,34.3,17.5
26.8,209,34.8,17.5
26.8,209,35.3,17.4
26.8,209,35.9,17
26.8,209,36.5,16.4
26.8,209,37.1,15.7
26.8,209,37.8,15
26.8,209,38.4,14.2
26.8,209,39,13.4
26.8,209,39.5,12.7
26.8,209,39.9,12
26.8,209,40.2,11.5
26.8,209,40.4,11
26.8,209,40.5,10.6
26.9,209,40.5,10.2
26.9,209,40.5,9.9
26.9,209,40.4,9.6
26.9,209,40.3,9.4
26.9,209,40.1,9.2
26.9,209,39.9,9
26.9,209,39.6,8.9
26.9,210,39.3,8.8
26.9,210,39,8.7
26.9,210,38.6,8.5
26.9,210,38.2,8.4
26.9,210,37.6,8.2
26.9,210,37,8
26.9,210,36.4,7.8
26.9,210,35.8,7.7
26.9,210,35.1,7.7
26.9,210,34.4,7.7
26.9,210,33.7,7.6
26.9,210,32.8,7.6
26.9,210,31.7,7.5
26.9,210,30.4,7.3
26.9,210,28.9,7
26.9,210,27.3,6.6
26.9,210,25.7,6.2
26.9,210,24.3,5.8
27,210,23.2,5.5
27,210,22.4,5.3
27,210,22.1,5.3
27,210,22,5.3
27,210,22.1,5.4
27,210,22.3,5.6
27,210,22.5,5.7
27,210,22.7,5.8
27,210,22.8,5.8
27,210,22.7,5.8
27,210,22.6,5.7
27,210,22.3,5.5
27,210,21.8,5.2
27,210,21.2,4.8
27,211,20.3,4.3
27,211,19.4,3.8
27,211,18.4,3.3
27,211,17.5,2.8
27,211,16.7,2.5
27,211,15.9,2.2
27,211,15.4,1.9
27,211,14.9,1.7
27,211,14.4,1.4
27,211,14,1.1
27,211,13.6,0.7
27.1,211,13.1,0.3
27.1,211,12.7,-0.2
27.1,211,12.3,-0.7
27.1,211,11.9,-1.2
27.1,211,11.4,-1.8
27.1,211,10.9,-2.3
27.1,211,10.3,-2.9
27.1,211,9.6,-3.3
27.1,211,9,-3.7
27.1,211,8.2,-4
27.1,211,7.5,-4.2
27.1,211,6.7,-4.2
27.1,211,6,-4.1
27.1,211,5.4,-3.9
27.1,211,4.8,-3.5
27.1,211,4.5,-3
27.1,211,4.2,-2.4
27.1,211,4.1,-1.7
27.1,211,4.1,-0.9
27.1,211,4.3,-0.1
27.1,211,4.6,0.7
27.1,212,5,1.6
27.1,212,5.5,2.4
27.1,212,6.1,3.3
27.1,212,6.7,4.1
27.2,212,7.3,4.9
27.2,212,7.9,5.5
27.2,212,8.5,5.9
27.2,212,8.9,6.2
27.2,212,9.2,6.3
27.2,212,9.3,6.1
27.2,212,9.2,5.7
27.2,212,9,5.2
27.2,212,8.5,4.6
27.2,212,8,3.9
27.2,212,7.3,3.3
27.2,212,6.7,2.6
27.2,212,6,1.9
27.2,212,5.3,1.3
27.2,212,4.6,0.6
27.2,212,4,0
27.2,212,3.6,-0.5
27.2,212,3.2,-0.9
27.2,212,2.9,-1.2
27.2,212,2.7,-1.4
27.2,212,2.5,-1.5
27.2,212,2.3,-1.6
27.2,212,2.1,-1.6
27.2,212,2,-1.6
27.2,212,2,-1.6
27.3,212,2,-1.7
27.3,212,2.1,-1.9
27.3,212,2.1,-2.1
27.3,213,2.1,-2.3
27.3,213,2.1,-2.5
27.3,213,2.1,-2.7
27.3,213,2,-2.7
27.3,213,1.8,-2.7
27.3,213,1.7,-2.6
27.3,213,1.5,-2.4
27.3,213,1.3,-2.1
27.3,213,1.1,-1.8
27.3,213,0.9,-1.4
27.3,213,0.7,-1.1
27.3,213,0.5,-0.7
27.3,213,0.3,-0.4
27.3,213,0.1,-0.1
27.3,213,0,0.2
27.3,213,-0.2,0.4
27.3,213,-0.4,0.7
27.3,213,-0.7,0.9
27.3,213,-0.9,1.1
27.3,213,-1.3,1.3
27.3,213,-1.7,1.4
27.3,213,-2.3,1.4
27.4,213,-2.9,1.4
27.4,213,-3.7,1.3
27.4,213,-4.6,1.3
27.4,213,-5.5,1.1
27.4,213,-6.4,1
27.4,213,-7.2,0.9
27.4,213,-7.7,0.7
27.4,213,-8,0.5
27.4,213,-8.2,0.2
27.4,213,-8.1,-0.1
27.4,214,-7.9,-0.4
27.4,214,-7.6,-0.8
27.4,214,-7.2,-1.2
27.4,214,-6.8,-1.7
27.4,214,-6.3,-2.1
27.4,214,-5.9,-2.5
27.4,214,-5.5,-2.8
27.4,214,-5.3,-3.1
27.4,214,-5.1,-3.3
27.4,214,-5.2,-3.4
27.4,214,-5.4,-3.4
27.4,214,-5.8,-3.2
