0,0,0,0
0,0,-0.1,-0.2
0,0,1.2,1.3
0,0,13.9,15.3
0,0,56.8,62.6
0,0,141.8,156
0,0,261.8,288
0,0,403.5,443.9
0,0,559.5,615.4
0,0,724,796.2
0,0,887.3,975.4
0,0,1037.9,1140.8
0,0,1167.5,1282.8
0.1,0,1270.6,1395.8
0.1,0,1344.6,1476.7
0.1,0,1388.2,1524.2
0.1,0,1400.2,1536.9
0.1,0,1380.1,1514.5
0.1,0,1331.4,1460.6
0.1,0,1259.5,1381.3
0.1,0,1168.6,1281.2
0.1,0,1060.6,1162.4
0.1,0,939.9,1029.8
0.1,0,813.3,890.7
0.1,0,685.4,750.3
0.1,0,557.8,610.2
0.1,0,432.5,472.7
0.1,0,313.5,342.2
0.1,0,203.7,221.8
0.1,0,102.8,111.4
0.1,0,10.6,10.4
0.1,0,-72.2,-80.1
0.1,1,-144.6,-159.4
0.1,1,-207.8,-228.5
0.1,1,-263.2,-289.3
0.1,1,-311.7,-342.6
0.1,1,-353.9,-389
0.1,1,-390.6,-429.6
0.2,1,-423.1,-465.7
0.2,1,-452.8,-498.7
0.2,1,-480.5,-529.5
0.2,1,-506.5,-558.4
0.2,1,-531,-585.6
0.2,1,-554.7,-611.8
0.2,1,-578.3,-637.8
0.2,1,-601.9,-663.6
0.2,1,-624.6,-688.3
0.2,1,-646.2,-711.8
0.2,1,-667.6,-734.9
0.2,1,-688.8,-757.7
0.2,1,-708.3,-778.8
0.2,1,-725.8,-797.6
0.2,1,-741.9,-815
0.2,1,-757.1,-831.4
0.2,1,-770.3,-845.7
0.2,1,-780.8,-857.1
0.2,1,-789.4,-866.5
0.2,1,-796.9,-874.8
0.2,1,-802.7,-881.1
0.2,1,-805.9,-884.7
0.2,1,-807.3,-886.2
0.2,1,-807.8,-886.6
0.2,1,-807.1,-885.5
0.3,1,-804.5,-882.1
0.3,2,-800.2,-876.8
0.3,2,-795.1,-870.5
0.3,2,-789.1,-863.4
0.3,2,-781.8,-854.8
0.3,2,-773.2,-844.9
0.3,2,-764,-834.5
0.3,2,-754.4,-823.7
0.3,2,-744,-812.2
0.3,2,-732.7,-799.9
0.3,2,-720.8,-787
0.3,2,-708.4,-773.7
0.3,2,-695.4,-759.8
0.3,2,-681.7,-745.1
0.3,2,-667.1,-729.7
0.3,2,-652,-713.6
0.3,2,-636.4,-697
0.3,2,-620.4,-680
0.3,2,-604,-662.5
0.3,2,-587,-644.2
0.3,2,-569.8,-625.6
0.3,2,-552.7,-606.9
0.3,2,-535.3,-587.7
0.3,2,-517.4,-567.8
0.3,2,-499.3,-547.5
0.4,2,-481.4,-527.3
0.4,2,-463.5,-507.1
0.4,2,-445.2,-486.2
0.4,2,-426.6,-465
0.4,2,-408.2,-444.1
0.4,2,-390,-423.4
0.4,2,-371.3,-402.3
0.4,2,-352.1,-380.8
0.4,3,-333.1,-359.7
0.4,3,-314.4,-339
0.4,3,-295.2,-318
0.4,3,-275.5,-296.6
0.4,3,-255.9,-275.6
0.4,3,-236.7,-255.1
0.4,3,-217.4,-234.7
0.4,3,-197.7,-214
0.4,3,-178.1,-193.5
0.4,3,-159.2,-173.8
0.4,3,-140.5,-154.3
0.4,3,-121.7,-134.7
0.4,3,-103.3,-115.3
0.4,3,-85.6,-96.7
0.4,3,-68.6,-78.7
0.4,3,-51.9,-60.7
0.4,3,-35.4,-42.9
0.5,3,-19.4,-25.6
0.5,3,-3.9,-8.7
0.5,3,11.6,8.4
0.5,3,27.1,25.5
0.5,3,42.3,42.6
0.5,3,57.2,59.4
0.5,3,72,76.2
0.5,3,86.7,92.9
0.5,3,101.2,109.4
0.5,3,115.3,125.4
0.5,3,129,141
0.5,3,142.5,156.1
0.5,3,155.9,170.9
0.5,3,169,185.2
0.5,3,181.8,199.1
0.5,4,194.2,212.5
0.5,4,206.4,225.5
0.5,4,218.3,238.3
0.5,4,229.7,250.6
0.5,4,240.4,262.3
0.5,4,250.7,273.6
0.5,4,260.6,284.7
0.5,4,270.1,295.3
0.5,4,278.8,305.4
0.5,4,287.1,315.1
0.6,4,295.2,324.6
0.6,4,302.9,333.8
0.6,4,310,342.3
0.6,4,316.5,350.1
0.6,4,322.9,357.8
0.6,4,329.3,365.3
0.6,4,335.1,372
0.6,4,340.6,378.2
0.6,4,346.1,384.3
0.6,4,351.7,390.4
0.6,4,357,396
0.6,4,361.9,401.1
0.6,4,366.8,406.2
0.6,4,371.8,411.2
0.6,4,376.5,415.8
0.6,4,380.5,419.7
0.6,4,384.2,423.3
0.6,4,387.7,426.9
0.6,4,390.9,430.1
0.6,4,393.3,432.5
0.6,4,395.1,434.5
0.6,4,396.8,436.4
0.6,5,398.2,438
0.6,5,398.9,438.8
0.6,5,399.2,439.2
0.7,5,399.4,439.4
0.7,5,399.5,439.4
0.7,5,399.2,438.9
0.7,5,398.5,437.9
0.7,5,397.7,436.6
0.7,5,396.8,435.2
0.7,5,395.6,433.4
0.7,5,394,431.1
0.7,5,392.2,428.7
0.7,5,390.3,426.1
0.7,5,388.2,423.2
0.7,5,385.8,420.1
0.7,5,383.2,416.8
0.7,5,380.3,413.4
0.7,5,377.3,409.7
0.7,5,373.9,405.9
0.7,5,370.2,401.9
0.7,5,366.4,397.7
0.7,5,362.4,393.5
0.7,5,358.3,389.1
0.7,5,354.2,384.7
0.7,5,350,379.9
0.7,5,345.7,375
0.7,5,341.5,370
0.7,5,337.2,364.8
0.8,5,332.6,359.2
0.8,5,327.9,353.4
0.8,5,323.2,347.6
0.8,5,318.4,341.8
0.8,6,313.4,335.8
0.8,6,308,329.7
0.8,6,302.6,323.8
0.8,6,297.2,318.1
0.8,6,291.5,312.2
0.8,6,285.4,306.1
0.8,6,279.3,300.2
0.8,6,273.1,294.4
0.8,6,266.7,288.4
0.8,6,260,282.1
0.8,6,253.2,275.8
0.8,6,246.6,269.7
0.8,6,239.9,263.5
0.8,6,233.1,256.9
0.8,6,226.3,250.3
0.8,6,219.7,243.8
0.8,6,213.2,237.2
0.8,6,206.5,230.2
0.8,6,199.8,223
0.8,6,193.5,216
0.8,6,187.4,209
0.9,6,181.2,201.8
0.9,6,175,194.6
0.9,6,169.1,187.6
0.9,6,163.3,180.8
0.9,6,157.4,173.8
0.9,6,151.4,166.8
0.9,6,145.4,159.9
0.9,6,139.5,153.2
0.9,6,133.5,146.4
0.9,6,127.3,139.6
0.9,6,121.3,133
0.9,7,115.4,126.6
0.9,7,109.7,120.2
0.9,7,103.9,113.9
0.9,7,98.2,107.6
0.9,7,92.7,101.4
0.9,7,87.2,95.2
0.9,7,81.6,89
0.9,7,76.1,82.7
0.9,7,70.7,76.4
0.9,7,65.2,70.1
0.9,7,59.8,63.8
0.9,7,54.3,57.5
0.9,7,48.9,51.4
0.9,7,43.6,45.3
1,7,38.2,39.4
1,7,32.7,33.6
1,7,27.1,27.8
1,7,21.5,22.1
1,7,15.8,16.4
1,7,10.2,10.8
1,7,4.5,5.1
1,7,-1.3,-0.7
1,7,-6.9,-6.3
1,7,-12.4,-11.7
1,7,-17.7,-17.1
1,7,-22.9,-22.3
1,7,-27.9,-27.3
1,7,-32.5,-32.1
1,7,-36.9,-36.7
1,7,-41.2,-41.4
1,7,-45.2,-46
1,7,-48.8,-50.3
1,8,-52.1,-54.6
1,8,-55.5,-58.8
1,8,-58.7,-62.9
1,8,-61.8,-66.8
1,8,-64.9,-70.4
1,8,-68,-74.1
1,8,-71.3,-77.7
1.1,8,-74.4,-81.1
1.1,8,-77.4,-84.5
1.1,8,-80.6,-87.9
1.1,8,-83.7,-91.3
1.1,8,-86.6,-94.4
1.1,8,-89.3,-97.3
1.1,8,-91.8,-100.2
1.1,8,-94.3,-103
1.1,8,-96.5,-105.5
1.1,8,-98.4,-107.8
1.1,8,-100.2,-110
1.1,8,-101.8,-112.2
1.1,8,-103.2,-114.1
1.1,8,-104.4,-115.8
1.1,8,-105.6,-117.5
1.1,8,-106.8,-119.3
1.1,8,-108,-121
1.1,8,-109.1,-122.6
1.1,8,-110.2,-124.2
1.1,8,-111.4,-125.8
1.1,8,-112.6,-127.3
1.1,8,-113.8,-128.7
1.1,8,-115,-130.1
1.1,8,-116.4,-131.5
1.1,8,-117.8,-132.9
1.2,9,-119.2,-134.2
1.2,9,-120.6,-135.4
1.2,9,-121.9,-136.4
1.2,9,-123.1,-137.4
1.2,9,-124.2,-138.2
1.2,9,-125.1,-138.8
1.2,9,-125.9,-139.3
1.2,9,-126.7,-139.8
1.2,9,-127.5,-140.2
1.2,9,-128.4,-140.6
1.2,9,-129.4,-141
1.2,9,-130.5,-141.4
1.2,9,-131.6,-141.7
1.2,9,-132.4,-141.9
1.2,9,-133,-142
1.2,9,-133.3,-141.8
1.2,9,-133.2,-141.5
1.2,9,-132.9,-141.1
1.2,9,-132.2,-140.5
1.2,9,-131.4,-139.6
1.2,9,-130.4,-138.8
1.2,9,-129.3,-137.8
1.2,9,-128,-136.8
1.2,9,-126.7,-135.7
1.2,9,-125.2,-134.5
1.3,9,-123.8,-133.3
1.3,9,-122.2,-132.1
1.3,9,-120.4,-130.7
1.3,9,-118.4,-129.1
1.3,9,-116.5,-127.6
1.3,9,-114.8,-126.2
1.3,9,-113.2,-124.8
1.3,10,-111.9,-123.4
1.3,10,-111,-122.2
1.3,10,-110.3,-121
1.3,10,-109.8,-119.9
1.3,10,-109.4,-118.7
1.3,10,-109.1,-117.5
1.3,10,-108.8,-116.4
1.3,10,-108.5,-115.1
1.3,10,-108,-113.7
1.3,10,-107.3,-112.2
1.3,10,-106.6,-110.7
1.3,10,-105.7,-109.1
1.3,10,-104.4,-107.3
1.3,10,-102.8,-105.4
1.3,10,-101,-103.5
1.3,10,-99.1,-101.5
1.3,10,-96.8,-99.3
1.3,10,-94.3,-97
1.4,10,-91.7,-94.7
1.4,10,-89,-92.4
1.4,10,-86.2,-89.9
1.4,10,-83.4,-87.4
1.4,10,-80.7,-84.9
1.4,10,-78.2,-82.6
1.4,10,-75.8,-80.3
1.4,10,-73.4,-78.1
1.4,10,-71.3,-75.9
1.4,10,-69.2,-74
1.4,10,-67.3,-72
1.4,10,-65.3,-70
1.4,10,-63.3,-68.2
1.4,10,-61.4,-66.4
1.4,11,-59.5,-64.7
1.4,11,-57.5,-63.1
1.4,11,-55.6,-61.6
1.4,11,-53.9,-60.3
1.4,11,-52.3,-59.2
1.4,11,-50.8,-58.1
1.4,11,-49.4,-57
1.4,11,-48.1,-56
1.4,11,-46.9,-55
1.4,11,-45.7,-53.8
1.4,11,-44.5,-52.7
1.5,11,-43.3,-51.4
1.5,11,-42.1,-50
1.5,11,-40.8,-48.5
1.5,11,-39.6,-46.8
1.5,11,-38.2,-45
1.5,11,-36.8,-43.1
1.5,11,-35.4,-41.1
1.5,11,-33.9,-39.2
1.5,11,-32.3,-37.2
1.5,11,-30.6,-35.3
1.5,11,-29,-33.4
1.5,11,-27.5,-31.6
1.5,11,-25.9,-29.8
1.5,11,-24.4,-27.9
1.5,11,-23,-26
1.5,11,-21.7,-24.3
1.5,11,-20.5,-22.6
1.5,11,-19.4,-21
1.5,11,-18.4,-19.6
1.5,11,-17.6,-18.3
1.5,11,-16.9,-17.3
1.5,12,-16.1,-16.3
1.5,12,-15.3,-15.4
1.5,12,-14.4,-14.6
1.5,12,-13.5,-13.9
1.6,12,-12.4,-13.2
1.6,12,-11.2,-12.4
1.6,12,-10,-11.7
1.6,12,-8.8,-11
1.6,12,-7.6,-10.2
1.6,12,-6.4,-9.3
1.6,12,-5.2,-8.4
1.6,12,-4.2,-7.5
1.6,12,-3.3,-6.5
1.6,12,-2.5,-5.5
1.6,12,-1.8,-4.4
1.6,12,-1.1,-3.4
1.6,12,-0.5,-2.4
1.6,12,0.2,-1.2
1.6,12,0.8,-0.1
1.6,12,1.5,0.9
1.6,12,2.2,1.8
1.6,12,2.9,2.7
1.6,12,3.6,3.5
1.6,12,4.2,4
1.6,12,4.7,4.5
1.6,12,5.2,4.8
1.6,12,5.7,4.9
1.6,12,6.2,5
1.6,12,6.7,5
1.7,12,7.1,5
1.7,12,7.6,5.1
1.7,12,8.1,5.1
1.7,13,8.5,5.2
1.7,13,8.9,5.5
1.7,13,9.3,5.9
1.7,13,9.6,6.3
1.7,13,9.9,6.9
1.7,13,10.2,7.5
1.7,13,10.5,8.1
1.7,13,10.7,8.8
1.7,13,10.8,9.4
1.7,13,10.8,9.9
1.7,13,10.7,10.4
1.7,13,10.4,10.9
1.7,13,10,11.3
1.7,13,9.5,11.7
1.7,13,8.9,11.9
1.7,13,8.2,12.2
1.7,13,7.6,12.3
1.7,13,7.1,12.3
1.7,13,6.6,12.2
1.7,13,6.2,11.9
1.7,13,5.9,11.5
1.7,13,5.6,11
1.8,13,5.4,10.3
1.8,13,5.3,9.7
1.8,13,5.4,9.2
1.8,13,5.7,8.7
1.8,13,6.1,8.2
1.8,13,6.6,7.9
1.8,13,7.1,7.6
1.8,13,7.6,7.5
1.8,13,8.1,7.4
1.8,13,8.6,7.4
1.8,14,9,7.4
1.8,14,9.3,7.6
1.8,14,9.3,7.7
1.8,14,9.1,7.7
1.8,14,8.7,7.7
1.8,14,8.2,7.7
1.8,14,7.6,7.7
1.8,14,6.9,7.6
1.8,14,6.2,7.6
1.8,14,5.5,7.6
1.8,14,4.9,7.6
1.8,14,4.3,7.5
1.8,14,3.8,7.5
1.8,14,3.4,7.4
1.8,14,3.1,7.4
1.9,14,2.9,7.4
1.9,14,2.8,7.3
1.9,14,2.7,7.4
1.9,14,2.7,7.4
1.9,14,2.7,7.4
1.9,14,2.7,7.3
1.9,14,2.7,7.1
1.9,14,2.7,6.9
1.9,14,2.7,6.6
1.9,14,2.6,6.3
1.9,14,2.7,6
1.9,14,2.8,5.6
1.9,14,2.9,5.3
1.9,14,3.1,4.9
1.9,14,3.4,4.5
1.9,14,3.7,4.2
1.9,14,4.1,3.9
1.9,15,4.5,3.6
1.9,15,4.9,3.3
1.9,15,5.4,3
1.9,15,6,2.8
1.9,15,6.5,2.7
1.9,15,7,2.6
1.9,15,7.4,2.5
1.9,15,7.8,2.4
2,15,8,2.4
2,15,8.1,2.3
2,15,8,2.1
2,15,7.7,2
2,15,7.3,1.7
2,15,6.7,1.4
2,15,5.8,0.9
2,15,4.7,0.3
2,15,3.5,-0.3
2,15,2,-1.1
2,15,0.4,-2.1
2,15,-1.3,-3.1
2,15,-3,-4.3
2,15,-4.6,-5.4
2,15,-6,-6.5
2,15,-7.1,-7.4
2,15,-8,-8.2
2,15,-8.6,-8.7
2,15,-8.9,-8.9
2,15,-9.1,-9
2,15,-9.1,-9
2,15,-8.9,-8.9
2,15,-8.6,-8.7
2,15,-8.3,-8.3
2,16,-7.8,-7.9
2.1,16,-7.2,-7.4
2.1,16,-6.6,-6.7
2.1,16,-5.9,-6
2.1,16,-5.2,-5.3
2.1,16,-4.7,-4.6
2.1,16,-4.3,-4
2.1,16,-4,-3.4
2.1,16,-3.8,-3
2.1,16,-3.7,-2.5
2.1,16,-3.5,-2
2.1,16,-3.2,-1.5
2.1,16,-3,-1.2
2.1,16,-2.6,-0.8
2.1,16,-2.3,-0.6
2.1,16,-1.9,-0.4
2.1,16,-1.6,-0.3
2.1,16,-1.4,-0.3
2.1,16,-1.3,-0.4
2.1,16,-1.3,-0.5
2.1,16,-1.4,-0.8
2.1,16,-1.6,-1
2.1,16,-1.8,-1.2
2.1,16,-1.9,-1.4
2.1,16,-2,-1.6
2.1,16,-2,-1.7
2.2,16,-2,-1.6
2.2,16,-1.9,-1.6
2.2,16,-1.8,-1.4
2.2,16,-1.8,-1.3
2.2,16,-1.7,-1.2
2.2,16,-1.6,-1.1
2.2,17,-1.5,-1.1
2.2,17,-1.4,-1.1
2.2,17,-1.4,-1.3
2.2,17,-1.4,-1.5
2.2,17,-1.4,-1.9
2.2,17,-1.5,-2.3
2.2,17,-1.6,-2.7
2.2,17,-1.8,-3.2
2.2,17,-2,-3.6
2.2,17,-2.3,-4.1
2.2,17,-2.5,-4.6
2.2,17,-2.7,-5.2
2.2,17,-2.9,-5.8
2.2,17,-3,-6.4
2.2,17,-3.1,-7
2.2,17,-3.1,-7.5
2.2,17,-3.1,-8
2.2,17,-3.2,-8.4
2.2,17,-3.4,-8.7
2.3,17,-3.7,-9
2.3,17,-4,-9.2
2.3,17,-4.2,-9.2
2.3,17,-4.4,-9.2
2.3,17,-4.4,-8.9
2.3,17,-4.4,-8.5
2.3,17,-4.3,-8
2.3,17,-4.1,-7.4
2.3,17,-3.9,-6.7
2.3,17,-3.6,-5.9
2.3,17,-3.3,-5.1
2.3,17,-2.9,-4.4
2.3,17,-2.7,-3.7
2.3,18,-2.5,-3.1
2.3,18,-2.6,-2.7
2.3,18,-2.8,-2.5
2.3,18,-3.2,-2.4
2.3,18,-3.8,-2.4
2.3,18,-4.5,-2.6
2.3,18,-5.1,-2.8
2.3,18,-5.8,-3
2.3,18,-6.5,-3.3
2.3,18,-7,-3.6
2.3,18,-7.6,-3.9
2.3,18,-8,-4.1
2.4,18,-8.4,-4.4
2.4,18,-8.7,-4.7
2.4,18,-9,-5.1
2.4,18,-9.2,-5.5
2.4,18,-9.3,-6
2.4,18,-9.3,-6.6
2.4,18,-9.3,-7.2
2.4,18,-9.2,-7.7
2.4,18,-9,-8.2
2.4,18,-8.8,-8.6
2.4,18,-8.6,-8.8
2.4,18,-8.2,-9
2.4,18,-7.8,-9.1
2.4,18,-7.3,-9.1
2.4,18,-6.9,-9.1
2.4,18,-6.4,-9
2.4,18,-6,-8.7
2.4,18,-5.5,-8.4
2.4,18,-5.1,-8
2.4,18,-4.6,-7.5
2.4,19,-4.1,-6.8
2.4,19,-3.6,-6
2.4,19,-3.1,-5.2
2.4,19,-2.5,-4.3
2.4,19,-2.1,-3.4
2.5,19,-1.7,-2.5
2.5,19,-1.3,-1.6
2.5,19,-1.1,-0.8
2.5,19,-1,0
2.5,19,-0.9,0.8
2.5,19,-0.8,1.5
2.5,19,-0.7,2.1
2.5,19,-0.6,2.6
2.5,19,-0.6,3
2.5,19,-0.6,3.2
2.5,19,-0.5,3.2
2.5,19,-0.4,3.2
2.5,19,-0.1,3.1
2.5,19,0.3,3.1
2.5,19,0.8,3.1
2.5,19,1.5,3.1
2.5,19,2.1,3.2
2.5,19,2.8,3.4
2.5,19,3.4,3.6
2.5,19,3.9,3.8
2.5,19,4.3,4.1
2.5,19,4.6,4.3
2.5,19,4.8,4.5
2.5,19,4.9,4.6
2.5,19,4.9,4.8
2.6,19,4.8,4.9
2.6,19,4.5,5
2.6,20,4,5
2.6,20,3.5,4.9
2.6,20,2.9,4.7
2.6,20,2.4,4.4
2.6,20,2,4.1
2.6,20,1.7,3.8
2.6,20,1.5,3.5
2.6,20,1.5,3.2
2.6,20,1.6,2.9
2.6,20,1.9,2.7
2.6,20,2.2,2.6
2.6,20,2.7,2.5
2.6,20,3.2,2.5
2.6,20,3.7,2.6
2.6,20,4.1,2.8
2.6,20,4.5,3.1
2.6,20,4.8,3.4
2.6,20,5.1,3.9
2.6,20,5.3,4.4
2.6,20,5.4,4.9
2.6,20,5.5,5.3
2.6,20,5.5,5.7
2.6,20,5.6,6
2.7,20,5.5,6.2
2.7,20,5.6,6.2
2.7,20,5.6,6.1
2.7,20,5.7,6
2.7,20,5.8,5.9
2.7,20,5.9,5.8
2.7,20,5.9,5.7
2.7,20,5.9,5.6
2.7,20,5.9,5.6
2.7,21,5.7,5.7
2.7,21,5.5,5.7
2.7,21,5.2,5.9
2.7,21,4.7,6
2.7,21,4.1,6.2
2.7,21,3.3,6.4
2.7,21,2.5,6.6
2.7,21,1.7,6.8
2.7,21,1,6.9
2.7,21,0.3,7.1
2.7,21,-0.2,7.3
2.7,21,-0.5,7.4
2.7,21,-0.8,7.4
2.7,21,-0.8,7.2
2.7,21,-0.8,6.9
2.7,21,-0.6,6.5
2.8,21,-0.2,6
2.8,21,0.4,5.6
2.8,21,1.1,5.1
2.8,21,1.9,4.7
2.8,21,2.8,4.3
2.8,21,3.6,4
2.8,21,4.3,3.6
2.8,21,4.9,3.3
2.8,21,5.4,3
2.8,21,5.8,2.7
2.8,21,6.1,2.5
2.8,21,6.4,2.2
2.8,21,6.5,2
2.8,21,6.6,1.9
2.8,21,6.6,1.8
2.8,21,6.5,1.8
2.8,22,6.2,1.9
2.8,22,5.7,1.9
2.8,22,5.1,2
2.8,22,4.3,2.1
2.8,22,3.3,2.3
2.8,22,2.4,2.4
2.8,22,1.5,2.6
2.8,22,0.8,2.9
2.8,22,0.2,3.2
2.9,22,-0.3,3.4
2.9,22,-0.6,3.6
2.9,22,-0.8,3.8
2.9,22,-0.8,3.9
2.9,22,-0.8,3.9
2.9,22,-0.6,4
2.9,22,-0.3,4.1
2.9,22,0.2,4.2
2.9,22,0.7,4.4
2.9,22,1.4,4.6
2.9,22,2.1,4.8
2.9,22,2.9,4.8
2.9,22,3.6,4.8
2.9,22,4.3,4.8
2.9,22,4.8,4.7
2.9,22,5.3,4.7
2.9,22,5.6,4.7
2.9,22,5.9,4.8
2.9,22,6.1,4.9
2.9,22,6.3,5.1
2.9,22,6.5,5.3
2.9,22,6.7,5.5
2.9,22,6.9,5.6
2.9,23,7,5.7
2.9,23,7.2,5.7
3,23,7.2,5.7
3,23,7.2,5.6
3,23,7.2,5.6
3,23,7.1,5.6
3,23,7,5.6
3,23,6.9,5.7
3,23,6.9,6
3,23,6.9,6.3
3,23,6.9,6.8
3,23,7,7.2
3,23,7.2,7.7
3,23,7.5,8.1
3,23,7.8,8.3
3,23,8.2,8.4
3,23,8.6,8.4
3,23,9,8.4
3,23,9.5,8.2
3,23,9.9,8.1
3,23,10.3,7.9
3,23,10.6,7.7
3,23,10.8,7.4
3,23,10.8,7.1
3,23,10.7,6.7
3,23,10.3,6.3
3,23,9.8,5.8
3.1,23,8.9,5.2
3.1,23,8,4.6
3.1,23,6.9,4
3.1,23,5.7,3.4
3.1,23,4.7,2.8
3.1,24,3.6,2.2
3.1,24,2.7,1.6
3.1,24,1.9,1.1
3.1,24,1.2,0.6
3.1,24,0.6,0.3
3.1,24,0.3,0
3.1,24,0.2,-0.1
3.1,24,0.2,-0.1
3.1,24,0.4,0
3.1,24,0.8,0.2
3.1,24,1.1,0.4
3.1,24,1.5,0.8
3.1,24,1.8,1.3
3.1,24,2.1,1.8
3.1,24,2.4,2.3
3.1,24,2.6,2.9
3.1,24,2.8,3.4
3.1,24,3,3.7
3.1,24,3.2,4
3.1,24,3.4,4.1
3.2,24,3.6,4.1
3.2,24,3.8,4
3.2,24,3.9,3.9
3.2,24,4.2,3.7
3.2,24,4.4,3.6
3.2,24,4.8,3.5
3.2,24,5.2,3.4
3.2,24,5.6,3.4
3.2,24,6.1,3.4
3.2,24,6.5,3.4
3.2,24,6.9,3.5
3.2,24,7.3,3.5
3.2,25,7.7,3.5
3.2,25,7.9,3.6
3.2,25,8.2,3.6
3.2,25,8.3,3.5
3.2,25,8.4,3.5
3.2,25,8.4,3.5
3.2,25,8.3,3.5
3.2,25,8.2,3.4
3.2,25,8,3.3
3.2,25,7.8,3.2
3.2,25,7.6,3.1
3.2,25,7.5,3.1
3.2,25,7.4,3.1
3.3,25,7.4,3.2
3.3,25,7.6,3.5
3.3,25,7.8,3.9
3.3,25,8.2,4.4
3.3,25,8.7,5.1
3.3,25,9.2,5.8
3.3,25,9.8,6.5
3.3,25,10.2,7.1
3.3,25,10.6,7.8
3.3,25,10.8,8.5
3.3,25,10.9,9.1
3.3,25,10.8,9.8
3.3,25,10.5,10.3
3.3,25,10,10.8
3.3,25,9.5,11.1
3.3,25,8.8,11.3
3.3,25,8.2,11.4
3.3,25,7.5,11.4
3.3,25,6.9,11.4
3.3,26,6.3,11.2
3.3,26,5.9,11.1
3.3,26,5.5,10.8
3.3,26,5.1,10.5
3.3,26,4.8,10
3.3,26,4.4,9.5
3.4,26,4.1,8.8
3.4,26,3.7,8
3.4,26,3.2,7.1
3.4,26,2.7,6.1
3.4,26,2.2,5.1
3.4,26,1.7,3.9
3.4,26,1.2,2.8
3.4,26,0.7,1.6
3.4,26,0.3,0.4
3.4,26,-0.1,-0.7
3.4,26,-0.4,-1.8
3.4,26,-0.7,-2.8
3.4,26,-1,-3.7
3.4,26,-1.3,-4.4
3.4,26,-1.7,-5
3.4,26,-2.2,-5.5
3.4,26,-2.8,-5.8
3.4,26,-3.5,-6
3.4,26,-4.2,-6
3.4,26,-4.8,-5.9
3.4,26,-5.4,-5.7
3.4,26,-5.9,-5.3
3.4,26,-6.3,-4.9
3.4,26,-6.6,-4.5
3.4,26,-6.9,-4.2
3.5,26,-7.3,-3.9
3.5,27,-7.6,-3.7
3.5,27,-7.8,-3.6
3.5,27,-8,-3.5
3.5,27,-8.1,-3.5
3.5,27,-7.9,-3.6
3.5,27,-7.6,-3.6
3.5,27,-7.1,-3.5
3.5,27,-6.5,-3.4
3.5,27,-5.9,-3.2
3.5,27,-5.2,-2.8
3.5,27,-4.5,-2.3
3.5,27,-3.8,-1.6
3.5,27,-3.1,-0.9
3.5,27,-2.6,-0.1
3.5,27,-2.1,0.7
3.5,27,-1.6,1.5
3.5,27,-1.2,2.2
3.5,27,-1,2.9
3.5,27,-0.8,3.5
3.5,27,-0.8,3.9
3.5,27,-0.9,4.3
3.5,27,-1.2,4.5
3.5,27,-1.6,4.6
3.5,27,-2.1,4.5
3.6,27,-2.7,4.4
3.6,27,-3.2,4.2
3.6,27,-3.8,3.9
3.6,27,-4.2,3.6
3.6,27,-4.5,3.4
3.6,27,-4.7,3.2
3.6,27,-4.8,3.1
3.6,27,-4.8,3.1
3.6,28,-4.6,3.1
3.6,28,-4.3,3.1
3.6,28,-3.8,3.2
3.6,28,-3.2,3.2
3.6,28,-2.4,3.1
3.6,28,-1.5,2.8
3.6,28,-0.6,2.5
3.6,28,0.3,2
3.6,28,1.1,1.4
3.6,28,1.8,0.8
3.6,28,2.4,0.2
3.6,28,2.9,-0.5
3.6,28,3.3,-1.2
3.6,28,3.5,-2
3.6,28,3.6,-2.8
3.6,28,3.4,-3.7
3.6,28,3.1,-4.7
3.7,28,2.5,-5.6
3.7,28,1.9,-6.4
3.7,28,1.2,-7.1
3.7,28,0.5,-7.5
3.7,28,0,-7.7
3.7,28,-0.3,-7.6
3.7,28,-0.5,-7.2
3.7,28,-0.5,-6.5
3.7,28,-0.3,-5.7
3.7,28,0,-4.6
3.7,28,0.5,-3.3
3.7,28,1.2,-1.8
3.7,28,2,-0.2
3.7,28,2.9,1.5
3.7,28,3.8,3.3
3.7,29,4.7,5
3.7,29,5.4,6.7
3.7,29,6,8.2
3.7,29,6.4,9.5
3.7,29,6.8,10.6
3.7,29,7.2,11.5
3.7,29,7.4,12.2
3.7,29,7.6,12.6
3.7,29,7.5,12.7
3.7,29,7,12.4
3.8,29,6.2,11.8
3.8,29,5.2,10.8
3.8,29,4.1,9.5
3.8,29,2.8,7.7
3.8,29,1.6,5.4
3.8,29,0.2,2.7
3.8,29,-1.2,-0.7
3.8,29,-2.8,-4.8
3.8,29,-4.5,-9.5
3.8,29,-6.6,-15.1
3.8,29,-8.8,-21.3
3.8,29,-11,-28.2
3.8,29,-13.3,-35.9
3.8,29,-15.7,-44.3
3.8,29,-18.1,-53.5
3.8,29,-20.6,-63.5
3.8,29,-23.2,-74.3
3.8,29,-25.9,-85.7
3.8,29,-28.7,-97.6
3.8,29,-31.7,-109.8
3.8,29,-34.9,-122.1
3.8,29,-38,-133.9
3.8,30,-41.1,-145
3.8,30,-44,-155
3.8,30,-46.6,-163.4
3.9,30,-48.9,-170.1
3.9,30,-50.7,-174.8
3.9,30,-51.9,-177.5
3.9,30,-52.5,-178.1
3.9,30,-52.4,-176.7
3.9,30,-51.7,-173.3
3.9,30,-50.4,-168
3.9,30,-48.7,-161
3.9,30,-46.6,-152.6
3.9,30,-44.1,-142.9
3.9,30,-41.3,-132.2
3.9,30,-38.1,-120.7
3.9,30,-34.6,-108.6
3.9,30,-30.7,-96.1
3.9,30,-26.7,-83.6
3.9,30,-22.6,-71.2
3.9,30,-18.4,-59.1
3.9,30,-14.4,-47.3
3.9,30,-10.4,-36
3.9,30,-6.4,-25
3.9,30,-2.6,-14.6
3.9,30,1.1,-4.5
3.9,30,4.9,5.2
3.9,30,8.8,14.5
3.9,30,12.8,23.4
4,30,16.9,32.1
4,30,21.1,40.4
4,30,25.3,48.4
4,30,29.4,56.1
4,31,33.4,63.5
4,31,37,70.6
4,31,40.3,77.3
4,31,43.3,83.6
4,31,46,89.6
4,31,48.5,95.2
4,31,50.9,100.6
4,31,53.2,105.8
4,31,55.5,110.7
4,31,57.8,115.4
4,31,60.1,120.1
4,31,62.5,124.9
4,31,64.8,129.6
4,31,67,134.3
4,31,69,139
4,31,70.8,143.5
4,31,72.5,147.8
4,31,74,151.8
4,31,75.4,155.6
4,31,76.8,159.2
4,31,78.1,162.7
4.1,31,79.3,166
4.1,31,80.4,169.1
4.1,31,81.3,171.9
4.1,31,82,174.5
4.1,31,82.5,176.7
4.1,31,82.8,178.7
4.1,31,83,180.5
4.1,31,83,181.9
4.1,31,82.9,183
4.1,31,82.6,183.9
4.1,31,82.1,184.5
4.1,32,81.4,184.9
4.1,32,80.3,184.9
4.1,32,79,184.5
4.1,32,77.3,183.8
4.1,32,75.3,182.7
4.1,32,73.1,181.3
4.1,32,70.7,179.8
4.1,32,68.2,178
4.1,32,65.4,176
4.1,32,62.5,173.6
4.1,32,59.5,170.8
4.1,32,56.3,167.6
4.1,32,53,164.2
4.1,32,49.8,160.4
4.2,32,46.5,156.6
4.2,32,43.3,152.6
4.2,32,40.1,148.5
4.2,32,36.8,144.3
4.2,32,33.5,140
4.2,32,30.2,135.6
4.2,32,27,131.3
4.2,32,23.8,126.9
4.2,32,20.7,122.5
4.2,32,17.7,118
4.2,32,14.7,113.3
4.2,32,11.6,108.3
4.2,32,8.4,103
4.2,32,5,97.4
4.2,32,1.6,91.4
4.2,32,-2.1,85.1
4.2,32,-6,78.5
4.2,32,-10.3,71.6
4.2,33,-15.1,64.4
4.2,33,-20.2,56.8
4.2,33,-25.5,49.1
4.2,33,-31,41.1
4.2,33,-36.4,33.1
4.2,33,-41.7,25
4.2,33,-46.9,16.9
4.3,33,-51.8,8.8
4.3,33,-56.4,0.8
4.3,33,-60.5,-7.1
4.3,33,-64.2,-14.7
4.3,33,-67.4,-22
4.3,33,-70.1,-29
4.3,33,-72.4,-35.6
4.3,33,-74.3,-42
4.3,33,-76.1,-48
4.3,33,-77.6,-53.7
4.3,33,-78.8,-59.1
4.3,33,-79.9,-64.1
4.3,33,-80.7,-68.7
4.3,33,-81.4,-73
4.3,33,-82,-76.8
4.3,33,-82.5,-80.3
4.3,33,-82.9,-83.4
4.3,33,-83,-86.3
4.3,33,-83,-88.8
4.3,33,-82.9,-91.2
4.3,33,-82.7,-93.4
4.3,33,-82.6,-95.5
4.3,33,-82.3,-97.6
4.3,33,-81.8,-99.5
4.3,33,-81.2,-101.3
4.4,34,-80.3,-103.1
4.4,34,-79.2,-104.7
4.4,34,-77.8,-106.1
4.4,34,-76.3,-107.5
4.4,34,-74.7,-108.6
4.4,34,-73.1,-109.5
4.4,34,-71.4,-110.2
4.4,34,-69.7,-110.6
4.4,34,-67.9,-110.7
4.4,34,-66.2,-110.7
4.4,34,-64.6,-110.4
4.4,34,-62.9,-110
4.4,34,-61.2,-109.4
4.4,34,-59.4,-108.8
4.4,34,-57.6,-108.2
4.4,34,-55.8,-107.6
4.4,34,-53.9,-107.2
4.4,34,-52.1,-106.9
4.4,34,-50.4,-106.8
4.4,34,-48.6,-106.8
4.4,34,-46.8,-106.8
4.4,34,-44.9,-106.8
4.4,34,-42.8,-106.8
4.4,34,-40.6,-106.7
4.4,34,-38.4,-106.6
4.5,34,-36.2,-106.4
4.5,34,-34,-106.1
4.5,34,-31.9,-105.5
4.5,34,-29.9,-104.8
4.5,34,-27.9,-103.9
4.5,34,-26,-102.7
4.5,34,-24.2,-101.3
4.5,35,-22.4,-99.8
4.5,35,-20.6,-98
4.5,35,-18.9,-96
4.5,35,-17.2,-94
4.5,35,-15.7,-92
4.5,35,-14.4,-90
4.5,35,-13.3,-88.2
4.5,35,-12.3,-86.5
4.5,35,-11.5,-84.8
4.5,35,-10.8,-83.1
4.5,35,-9.9,-81.5
4.5,35,-8.8,-80
4.5,35,-7.6,-78.6
4.5,35,-6.2,-77.4
4.5,35,-4.8,-76.4
4.5,35,-3.4,-75.6
4.5,35,-2,-75.1
4.5,35,-0.8,-74.9
4.6,35,0.4,-75
4.6,35,1.5,-75.3
4.6,35,2.6,-75.8
4.6,35,3.5,-76.5
4.6,35,4.4,-77.4
4.6,35,5.2,-78.4
4.6,35,6,-79.2
4.6,35,6.9,-79.9
4.6,35,7.9,-80.3
4.6,35,9.1,-80.4
4.6,35,10.5,-80.2
4.6,35,11.9,-79.8
4.6,35,13.5,-79.1
4.6,35,15.1,-78.1
4.6,36,16.7,-76.9
4.6,36,18.4,-75.3
4.6,36,20,-73.6
4.6,36,21.5,-71.5
4.6,36,23,-69.2
4.6,36,24.6,-66.5
4.6,36,26.3,-63.7
4.6,36,28.1,-60.6
4.6,36,29.9,-57.3
4.6,36,31.8,-54.1
4.6,36,33.6,-50.8
4.7,36,35.4,-47.6
4.7,36,37,-44.4
4.7,36,38.6,-41.2
4.7,36,40.1,-38
4.7,36,41.7,-34.7
4.7,36,43.4,-31.4
4.7,36,45,-28
4.7,36,46.6,-24.7
4.7,36,47.9,-21.5
4.7,36,48.9,-18.3
4.7,36,49.6,-15.3
4.7,36,50,-12.4
4.7,36,50,-9.7
4.7,36,49.6,-7.1
4.7,36,48.9,-4.6
4.7,36,47.9,-2.3
4.7,36,46.8,-0.1
4.7,36,45.5,2.2
4.7,36,44.4,4.5
4.7,36,43.4,6.9
4.7,36,42.6,9.6
4.7,37,42,12.3
4.7,37,41.3,15.1
4.7,37,40.7,18
4.7,37,39.8,20.7
4.8,37,38.8,23.4
4.8,37,37.7,26.1
4.8,37,36.5,28.8
4.8,37,35.4,31.4
4.8,37,34.3,34.1
4.8,37,33.4,36.6
4.8,37,32.5,39
4.8,37,31.7,41.2
4.8,37,31,43.1
4.8,37,30.4,44.7
4.8,37,29.8,45.9
4.8,37,29.2,46.6
4.8,37,28.4,46.9
4.8,37,27.4,46.7
4.8,37,26.3,46.2
4.8,37,25.1,45.4
4.8,37,23.9,44.2
4.8,37,22.6,42.9
4.8,37,21.1,41.3
4.8,37,19.6,39.6
4.8,37,18.2,37.9
4.8,37,16.9,36.1
4.8,37,15.9,34.4
4.8,37,15,32.8
4.8,37,14.2,31.1
4.9,37,13.6,29.4
4.9,37,13.1,27.9
4.9,37,12.6,26.4
4.9,38,12,25
4.9,38,11.3,23.7
4.9,38,10.5,22.3
4.9,38,9.6,21.1
4.9,38,8.7,20
4.9,38,7.9,19
4.9,38,7.2,18.3
4.9,38,6.6,17.9
4.9,38,6.2,17.8
4.9,38,5.9,18
4.9,38,5.8,18.7
4.9,38,5.8,19.7
4.9,38,6,21.2
4.9,38,6.3,23.1
4.9,38,6.8,25.6
4.9,38,7.4,28.6
4.9,38,8.1,32.1
4.9,38,8.9,36.3
4.9,38,9.7,41.1
4.9,38,10.5,46.4
4.9,38,11.3,52.3
4.9,38,12.2,58.6
5,38,13,65.2
5,38,13.8,72.1
5,38,14.7,79.2
5,38,15.7,86.4
5,38,16.9,93.5
5,38,18.1,100.4
5,38,19.4,107
5,38,20.8,113
5,38,22.1,118.3
5,38,23.5,122.7
5,39,24.7,126
5,39,25.7,128.3
5,39,26.6,129.5
5,39,27.2,129.5
5,39,27.5,128.3
5,39,27.6,126
5,39,27.3,122.5
5,39,26.7,118.1
5,39,25.7,112.9
5,39,24.3,107
5,39,22.7,100.6
5,39,20.9,93.7
5,39,18.8,86.6
5,39,16.6,79.3
5,39,14.2,71.9
5.1,39,11.8,64.6
5.1,39,9.2,57.3
5.1,39,6.6,50.3
5.1,39,4,43.5
5.1,39,1.5,37
5.1,39,-1,30.8
5.1,39,-3.5,25
5.1,39,-5.8,19.5
5.1,39,-8,14.4
5.1,39,-10,9.5
5.1,39,-11.9,5
5.1,39,-13.6,0.7
5.1,39,-15.2,-3.4
5.1,39,-16.7,-7.3
5.1,39,-18.1,-10.9
5.1,39,-19.4,-14.3
5.1,39,-20.5,-17.4
5.1,40,-21.6,-20.4
5.1,40,-22.5,-23.1
5.1,40,-23.3,-25.8
5.1,40,-24,-28.4
5.1,40,-24.7,-31.1
5.1,40,-25.5,-33.8
5.1,40,-26.3,-36.6
5.1,40,-27.2,-39.4
5.2,40,-28.1,-42.3
5.2,40,-29.1,-45.2
5.2,40,-30.2,-48.2
5.2,40,-31.3,-51.2
5.2,40,-32.5,-54.2
5.2,40,-33.7,-57.2
5.2,40,-34.9,-60.2
5.2,40,-36,-63
5.2,40,-37.1,-65.8
5.2,40,-38.2,-68.4
5.2,40,-39.3,-71
5.2,40,-40.5,-73.4
5.2,40,-41.7,-75.6
5.2,40,-42.8,-77.7
5.2,40,-43.9,-79.6
5.2,40,-44.8,-81.2
5.2,40,-45.7,-82.7
5.2,40,-46.3,-83.9
5.2,40,-46.9,-84.9
5.2,40,-47.2,-85.7
5.2,40,-47.4,-86.2
5.2,40,-47.5,-86.6
5.2,40,-47.5,-86.8
5.2,40,-47.3,-86.7
5.2,41,-47,-86.5
5.3,41,-46.6,-85.9
5.3,41,-45.9,-85.2
5.3,41,-45.1,-84.2
5.3,41,-44,-83
5.3,41,-42.6,-81.8
5.3,41,-41.1,-80.4
5.3,41,-39.4,-78.9
5.3,41,-37.7,-77.4
5.3,41,-35.9,-75.8
5.3,41,-34.1,-74.1
5.3,41,-32.4,-72.4
5.3,41,-30.7,-70.5
5.3,41,-29.2,-68.7
5.3,41,-27.7,-66.8
5.3,41,-26.4,-64.9
5.3,41,-25.3,-63.2
5.3,41,-24.4,-61.6
5.3,41,-23.6,-60.1
5.3,41,-23,-58.7
5.3,41,-22.5,-57.3
5.3,41,-22.1,-56.1
5.3,41,-21.8,-54.9
5.3,41,-21.6,-53.8
5.3,41,-21.5,-52.8
5.3,41,-21.6,-51.9
5.4,41,-21.8,-51.1
5.4,41,-22.2,-50.4
5.4,41,-22.5,-49.7
5.4,41,-22.7,-48.9
5.4,41,-22.7,-47.9
5.4,41,-22.5,-46.8
5.4,42,-22,-45.5
5.4,42,-21.2,-44.1
5.4,42,-20.3,-42.5
5.4,42,-19.2,-40.8
5.4,42,-18,-39
5.4,42,-16.6,-37
5.4,42,-15.1,-34.9
5.4,42,-13.5,-32.7
5.4,42,-11.9,-30.3
5.4,42,-10.4,-27.8
5.4,42,-8.9,-25.1
5.4,42,-7.4,-22.4
5.4,42,-6.1,-19.7
5.4,42,-4.9,-16.9
5.4,42,-3.9,-14.2
5.4,42,-3.1,-11.6
5.4,42,-2.5,-9.1
5.4,42,-2,-6.8
5.4,42,-1.6,-4.8
5.5,42,-1.3,-2.9
5.5,42,-1,-1.3
5.5,42,-0.7,0.1
5.5,42,-0.5,1.4
5.5,42,-0.2,2.5
5.5,42,0.1,3.6
5.5,42,0.4,4.6
5.5,42,0.8,5.7
5.5,42,1.3,6.8
5.5,42,1.9,8.1
5.5,42,2.5,9.5
5.5,42,3,11
5.5,42,3.6,12.6
5.5,43,4.1,14.3
5.5,43,4.5,16.1
5.5,43,4.9,18
5.5,43,5.3,19.9
5.5,43,5.6,21.9
5.5,43,5.8,23.9
5.5,43,6.1,25.8
5.5,43,6.3,27.7
5.5,43,6.6,29.5
5.5,43,6.9,31.2
5.5,43,7.3,32.8
5.5,43,7.9,34.4
5.6,43,8.5,35.9
5.6,43,9.2,37.3
5.6,43,10,38.6
5.6,43,10.8,39.8
5.6,43,11.6,40.9
5.6,43,12.4,42
5.6,43,13.2,43.2
5.6,43,13.9,44.3
5.6,43,14.6,45.4
5.6,43,15.2,46.4
5.6,43,15.8,47.5
5.6,43,16.4,48.6
5.6,43,16.9,49.6
5.6,43,17.4,50.7
5.6,43,17.8,51.8
5.6,43,18,52.8
5.6,43,18.2,53.6
5.6,43,18.3,54.3
5.6,43,18.3,54.9
5.6,43,18.4,55.4
5.6,44,18.4,55.8
5.6,44,18.5,56
5.6,44,18.5,56.1
5.6,44,18.6,56.2
5.6,44,18.6,56
5.7,44,18.7,55.7
5.7,44,18.6,55.2
5.7,44,18.6,54.6
5.7,44,18.5,53.8
5.7,44,18.3,53
5.7,44,18.1,52.1
5.7,44,17.9,51.4
5.7,44,17.7,50.7
5.7,44,17.5,50.2
5.7,44,17.4,49.7
5.7,44,17.3,49.3
5.7,44,17.3,49
5.7,44,17.4,48.9
5.7,44,17.5,48.8
5.7,44,17.7,48.8
5.7,44,17.7,48.7
5.7,44,17.7,48.7
5.7,44,17.6,48.6
5.7,44,17.5,48.5
5.7,44,17.5,48.5
5.7,44,17.5,48.4
5.7,44,17.5,48.2
5.7,44,17.6,48
5.7,44,17.7,47.7
5.7,44,17.8,47.3
5.8,44,17.9,46.9
5.8,44,18,46.4
5.8,45,18.1,45.8
5.8,45,18,45.1
5.8,45,17.9,44.3
5.8,45,17.6,43.5
5.8,45,17.2,42.7
5.8,45,16.8,41.9
5.8,45,16.3,41.1
5.8,45,15.8,40.3
5.8,45,15.3,39.6
5.8,45,14.9,39
5.8,45,14.6,38.5
5.8,45,14.3,38
5.8,45,14.1,37.5
5.8,45,14,37.1
5.8,45,14,36.6
5.8,45,14.1,36.2
5.8,45,14.2,35.7
5.8,45,14.4,35.1
5.8,45,14.6,34.5
5.8,45,14.8,33.9
5.8,45,14.9,33.2
5.8,45,15,32.4
5.8,45,14.9,31.5
5.9,45,14.7,30.5
5.9,45,14.3,29.4
5.9,45,13.9,28.3
5.9,45,13.3,27.1
5.9,45,12.7,25.9
5.9,45,12,24.7
5.9,45,11.3,23.5
5.9,45,10.5,22.3
5.9,45,9.8,21.3
5.9,46,9,20.3
5.9,46,8.2,19.4
5.9,46,7.3,18.5
5.9,46,6.5,17.6
5.9,46,5.6,16.8
5.9,46,4.8,16.1
5.9,46,4.1,15.4
5.9,46,3.6,14.8
5.9,46,3.2,14.2
5.9,46,3,13.7
5.9,46,2.9,13.3
5.9,46,2.8,12.8
5.9,46,2.8,12.4
5.9,46,2.8,11.9
5.9,46,2.9,11.4
5.9,46,2.9,10.8
6,46,2.8,10.1
6,46,2.7,9.2
6,46,2.6,8.3
6,46,2.4,7.2
6,46,2.2,6.1
6,46,2,4.9
6,46,1.8,3.7
6,46,1.7,2.5
6,46,1.6,1.3
6,46,1.6,0.3
6,46,1.6,-0.7
6,46,1.5,-1.5
6,46,1.4,-2.1
6,46,1.2,-2.6
6,46,0.9,-2.9
6,46,0.5,-3.1
6,47,0.1,-3.3
6,47,-0.3,-3.5
6,47,-0.7,-3.7
6,47,-1.2,-3.8
6,47,-1.7,-4.1
6,47,-2.2,-4.4
6,47,-2.6,-4.7
6,47,-3,-5.1
6,47,-3.2,-5.4
6.1,47,-3.4,-5.6
6.1,47,-3.5,-5.9
6.1,47,-3.5,-6.1
6.1,47,-3.6,-6.3
6.1,47,-3.5,-6.4
6.1,47,-3.5,-6.4
6.1,47,-3.4,-6.4
6.1,47,-3.4,-6.4
6.1,47,-3.5,-6.3
6.1,47,-3.6,-6.2
6.1,47,-3.8,-6.1
6.1,47,-4.1,-6.1
6.1,47,-4.5,-6.2
6.1,47,-4.9,-6.4
6.1,47,-5.4,-6.8
6.1,47,-5.9,-7.3
6.1,47,-6.3,-8.1
6.1,47,-6.8,-8.9
6.1,47,-7.2,-9.9
6.1,47,-7.6,-11
6.1,47,-8,-12.1
6.1,47,-8.4,-13.3
6.1,47,-8.8,-14.6
6.1,48,-9.1,-15.7
6.1,48,-9.3,-16.8
6.2,48,-9.3,-17.8
6.2,48,-9.2,-18.8
6.2,48,-9,-19.6
6.2,48,-8.6,-20.3
6.2,48,-8.2,-20.9
6.2,48,-7.9,-21.4
6.2,48,-7.6,-21.8
6.2,48,-7.5,-22.2
6.2,48,-7.5,-22.5
6.2,48,-7.6,-22.7
6.2,48,-7.7,-22.7
6.2,48,-7.8,-22.6
6.2,48,-7.7,-22.3
6.2,48,-7.5,-21.9
6.2,48,-7,-21.2
6.2,48,-6.4,-20.5
6.2,48,-5.7,-19.6
6.2,48,-5,-18.7
6.2,48,-4.4,-17.8
6.2,48,-3.8,-16.9
6.2,48,-3.2,-16
6.2,48,-2.7,-15.3
6.2,48,-2.3,-14.5
6.2,48,-2,-13.9
6.2,48,-1.7,-13.4
6.3,48,-1.4,-13.1
6.3,48,-1.3,-12.9
6.3,48,-1.2,-12.9
6.3,48,-1.1,-13
6.3,48,-1.1,-13.3
6.3,49,-0.9,-13.8
6.3,49,-0.7,-14.2
6.3,49,-0.4,-14.7
6.3,49,-0.1,-15.1
6.3,49,0.3,-15.4
6.3,49,0.8,-15.6
6.3,49,1.3,-15.7
6.3,49,1.8,-15.8
6.3,49,2.2,-15.9
6.3,49,2.4,-15.9
6.3,49,2.5,-15.8
6.3,49,2.5,-15.7
6.3,49,2.3,-15.4
6.3,49,2.1,-15
6.3,49,1.9,-14.4
6.3,49,1.6,-13.8
6.3,49,1.3,-13.2
6.3,49,0.9,-12.7
6.3,49,0.5,-12.2
6.3,49,0,-11.8
6.4,49,-0.4,-11.5
6.4,49,-0.8,-11.3
6.4,49,-1.2,-11.2
6.4,49,-1.4,-11.2
6.4,49,-1.5,-11.2
6.4,49,-1.5,-11.3
6.4,49,-1.4,-11.4
6.4,49,-1.2,-11.4
6.4,49,-1,-11.5
6.4,49,-0.6,-11.6
6.4,49,-0.3,-11.6
6.4,49,0,-11.5
6.4,50,0.3,-11.5
6.4,50,0.5,-11.4
6.4,50,0.7,-11.3
6.4,50,0.9,-11.1
6.4,50,1.1,-10.8
6.4,50,1.4,-10.3
6.4,50,1.6,-9.8
6.4,50,1.7,-9.3
6.4,50,1.6,-8.7
6.4,50,1.5,-8.3
6.4,50,1.1,-7.8
6.4,50,0.6,-7.6
6.4,50,-0.1,-7.5
6.5,50,-1,-7.5
6.5,50,-2,-7.8
6.5,50,-3.2,-8.1
6.5,50,-4.3,-8.5
6.5,50,-5.5,-8.9
6.5,50,-6.7,-9.3
6.5,50,-7.7,-9.6
6.5,50,-8.6,-9.8
6.5,50,-9.3,-9.8
6.5,50,-9.7,-9.8
6.5,50,-9.9,-9.5
6.5,50,-9.9,-9.2
6.5,50,-9.5,-8.7
6.5,50,-8.9,-8.1
6.5,50,-8.2,-7.5
6.5,50,-7.3,-6.9
6.5,50,-6.4,-6.2
6.5,50,-5.5,-5.6
6.5,50,-4.7,-5
6.5,51,-3.8,-4.5
6.5,51,-3.1,-4.1
6.5,51,-2.3,-3.7
6.5,51,-1.6,-3.4
6.5,51,-1,-3.1
6.5,51,-0.3,-3
6.6,51,0.3,-2.9
6.6,51,0.8,-2.8
6.6,51,1.4,-2.7
6.6,51,1.9,-2.6
6.6,51,2.4,-2.5
6.6,51,2.9,-2.4
6.6,51,3.2,-2.4
6.6,51,3.5,-2.3
6.6,51,3.6,-2.3
6.6,51,3.6,-2.3
6.6,51,3.4,-2.4
6.6,51,3.3,-2.4
6.6,51,3,-2.3
6.6,51,2.8,-2.4
6.6,51,2.6,-2.4
6.6,51,2.4,-2.6
6.6,51,2.3,-2.7
6.6,51,2.3,-2.9
6.6,51,2.3,-3.1
6.6,51,2.3,-3.2
6.6,51,2.3,-3.2
6.6,51,2.3,-3.1
6.6,51,2.2,-2.9
6.6,51,2.1,-2.5
6.6,51,2,-1.9
6.7,51,2,-1.3
6.7,52,2,-0.5
6.7,52,2.2,0.4
6.7,52,2.4,1.3
6.7,52,2.6,2.2
6.7,52,2.8,3.1
6.7,52,2.9,3.9
6.7,52,3,4.6
6.7,52,3.1,5.1
6.7,52,3.3,5.5
6.7,52,3.4,5.8
6.7,52,3.6,5.9
6.7,52,3.6,6
6.7,52,3.5,6
6.7,52,3.3,5.9
6.7,52,3,5.8
6.7,52,2.5,5.7
6.7,52,2,5.5
6.7,52,1.4,5.2
6.7,52,0.7,4.9
6.7,52,0,4.6
6.7,52,-0.6,4.4
6.7,52,-1.1,4.1
6.7,52,-1.5,3.9
6.7,52,-1.8,3.7
6.8,52,-1.9,3.4
6.8,52,-2,3.1
6.8,52,-2,2.8
6.8,52,-2,2.4
6.8,52,-2.1,1.9
6.8,52,-2.2,1.3
6.8,52,-2.3,0.7
6.8,52,-2.5,0.2
6.8,53,-2.6,-0.3
6.8,53,-2.7,-0.7
6.8,53,-2.6,-1.1
6.8,53,-2.5,-1.4
6.8,53,-2.4,-1.7
6.8,53,-2.1,-1.9
6.8,53,-1.9,-2.1
6.8,53,-1.6,-2.3
6.8,53,-1.4,-2.4
6.8,53,-1.1,-2.5
6.8,53,-0.8,-2.5
6.8,53,-0.6,-2.6
6.8,53,-0.4,-2.6
6.8,53,-0.3,-2.7
6.8,53,-0.2,-2.8
6.8,53,-0.2,-2.9
6.8,53,-0.2,-3.2
6.9,53,-0.2,-3.5
6.9,53,-0.1,-3.9
6.9,53,-0.1,-4.3
6.9,53,-0.1,-4.9
6.9,53,-0.2,-5.4
6.9,53,-0.2,-6
6.9,53,-0.3,-6.6
6.9,53,-0.5,-7.1
6.9,53,-0.6,-7.5
6.9,53,-0.9,-7.9
6.9,53,-1.1,-8.1
6.9,53,-1.5,-8.3
6.9,53,-1.9,-8.2
6.9,53,-2.2,-7.9
6.9,53,-2.6,-7.5
6.9,54,-3.1,-6.9
6.9,54,-3.6,-6.4
6.9,54,-4.2,-5.8
6.9,54,-4.8,-5.3
6.9,54,-5.5,-4.9
6.9,54,-6.1,-4.5
6.9,54,-6.6,-4.3
6.9,54,-7.2,-4.2
6.9,54,-7.6,-4.1
6.9,54,-7.8,-4.1
7,54,-7.9,-4.2
7,54,-7.9,-4.2
7,54,-7.7,-4.3
7,54,-7.3,-4.5
7,54,-6.9,-4.7
7,54,-6.4,-4.9
7,54,-5.9,-5.2
7,54,-5.4,-5.6
7,54,-5,-6
7,54,-4.7,-6.5
7,54,-4.7,-7.1
7,54,-4.8,-7.6
7,54,-5.2,-8.2
7,54,-5.6,-8.7
7,54,-6,-9.1
7,54,-6.3,-9.3
7,54,-6.4,-9.3
7,54,-6.4,-9.1
7,54,-6.2,-8.8
7,54,-5.9,-8.4
7,54,-5.4,-7.8
7,54,-4.7,-7
7,55,-3.9,-6.2
7,55,-3,-5.3
7,55,-2,-4.3
7.1,55,-1.1,-3.4
7.1,55,-0.1,-2.6
7.1,55,0.8,-1.9
7.1,55,1.7,-1.4
7.1,55,2.5,-1.1
7.1,55,3.3,-0.8
7.1,55,4.1,-0.6
7.1,55,4.7,-0.4
7.1,55,5.2,-0.3
7.1,55,5.6,-0.1
7.1,55,5.8,-0.1
7.1,55,5.9,-0.1
7.1,55,5.8,-0.3
7.1,55,5.6,-0.5
7.1,55,5.3,-0.9
7.1,55,4.8,-1.3
7.1,55,4.3,-1.9
7.1,55,3.6,-2.5
7.1,55,2.8,-3.1
7.1,55,1.9,-3.7
7.1,55,0.8,-4.3
7.1,55,-0.2,-4.8
7.1,55,-1.3,-5.3
7.1,55,-2.3,-5.6
7.1,55,-3.1,-5.9
7.2,55,-3.8,-5.9
7.2,55,-4.4,-5.8
7.2,55,-4.9,-5.5
7.2,55,-5.2,-5.1
7.2,56,-5.5,-4.6
7.2,56,-5.6,-4
7.2,56,-5.6,-3.4
7.2,56,-5.4,-2.9
7.2,56,-5.1,-2.3
7.2,56,-4.5,-1.8
7.2,56,-3.8,-1.2
7.2,56,-2.9,-0.7
7.2,56,-1.9,-0.2
7.2,56,-0.9,0.3
7.2,56,0.1,0.7
7.2,56,1.1,1
7.2,56,2,1.4
7.2,56,2.9,1.7
7.2,56,3.8,2.1
7.2,56,4.6,2.5
7.2,56,5.4,3
7.2,56,6.2,3.6
7.2,56,6.8,4.1
7.2,56,7.3,4.6
7.2,56,7.6,5
7.3,56,7.7,5.4
7.3,56,7.6,5.6
7.3,56,7.2,5.8
7.3,56,6.7,5.8
7.3,56,6,5.7
7.3,56,5.1,5.5
7.3,56,4.3,5.1
7.3,56,3.4,4.6
7.3,56,2.7,4
7.3,56,2.1,3.4
7.3,56,1.6,2.7
7.3,57,1.2,2.1
7.3,57,0.9,1.5
7.3,57,0.7,0.9
7.3,57,0.6,0.4
7.3,57,0.4,-0.1
7.3,57,0.3,-0.5
7.3,57,0.2,-0.9
7.3,57,0.1,-1.3
7.3,57,0,-1.6
7.3,57,-0.1,-1.9
7.3,57,-0.3,-2.1
7.3,57,-0.5,-2.3
7.3,57,-0.9,-2.5
7.3,57,-1.3,-2.6
7.4,57,-1.7,-2.7
7.4,57,-2.1,-2.6
7.4,57,-2.6,-2.6
7.4,57,-2.9,-2.4
7.4,57,-3.3,-2.3
7.4,57,-3.7,-2
7.4,57,-4,-1.8
7.4,57,-4.4,-1.4
7.4,57,-4.7,-0.9
7.4,57,-5,-0.4
7.4,57,-5.2,0.3
7.4,57,-5.3,1
7.4,57,-5.2,1.7
7.4,57,-5,2.5
7.4,57,-4.6,3.1
7.4,57,-4.2,3.7
7.4,57,-3.6,4.2
7.4,57,-2.9,4.6
7.4,58,-2.2,5
7.4,58,-1.5,5.2
7.4,58,-0.8,5.3
7.4,58,-0.1,5.3
7.4,58,0.4,5.2
7.4,58,0.9,5
7.4,58,1.2,4.6
7.5,58,1.3,4.1
7.5,58,1.4,3.6
7.5,58,1.3,3
7.5,58,1.2,2.3
7.5,58,0.9,1.6
7.5,58,0.6,1
7.5,58,0.2,0.4
7.5,58,-0.1,-0.2
7.5,58,-0.3,-0.7
7.5,58,-0.3,-1.2
7.5,58,-0.2,-1.6
7.5,58,0.1,-2
7.5,58,0.4,-2.3
7.5,58,0.9,-2.6
7.5,58,1.4,-2.7
7.5,58,2,-2.7
7.5,58,2.7,-2.5
7.5,58,3.4,-2.1
7.5,58,4.1,-1.5
7.5,58,4.7,-0.7
7.5,58,5.3,0.1
7.5,58,5.8,1
7.5,58,6.1,1.8
7.5,58,6.3,2.5
7.5,58,6.3,3
7.6,59,6.1,3.5
7.6,59,5.7,3.8
7.6,59,5.2,3.9
7.6,59,4.6,3.9
7.6,59,3.8,3.7
7.6,59,3.1,3.4
7.6,59,2.3,2.9
7.6,59,1.7,2.3
7.6,59,1.1,1.8
7.6,59,0.8,1.4
7.6,59,0.7,1.1
7.6,59,0.9,1
7.6,59,1.2,1
7.6,59,1.6,1.2
7.6,59,2,1.5
7.6,59,2.3,1.8
7.6,59,2.6,2.2
7.6,59,2.8,2.7
7.6,59,2.9,3.1
7.6,59,2.9,3.6
7.6,59,2.8,4.1
7.6,59,2.7,4.5
7.6,59,2.5,5
7.6,59,2.3,5.4
7.6,59,2.1,5.8
7.7,59,1.9,6.1
7.7,59,1.8,6.2
7.7,59,1.7,6.2
7.7,59,1.7,6
7.7,59,1.7,5.8
7.7,59,1.8,5.4
7.7,59,2,4.8
7.7,60,2.2,4.1
7.7,60,2.3,3.4
7.7,60,2.5,2.5
7.7,60,2.7,1.7
7.7,60,2.8,0.8
7.7,60,2.8,-0.1
7.7,60,2.8,-0.9
7.7,60,2.7,-1.6
7.7,60,2.6,-2.2
7.7,60,2.4,-2.6
7.7,60,2.2,-2.9
7.7,60,2,-2.9
7.7,60,1.7,-2.7
7.7,60,1.4,-2.4
7.7,60,1,-1.9
7.7,60,0.6,-1.4
7.7,60,0.2,-0.8
7.7,60,-0.3,-0.3
7.8,60,-0.7,0.2
7.8,60,-1,0.6
7.8,60,-1.3,1
7.8,60,-1.4,1.2
7.8,60,-1.4,1.4
7.8,60,-1.2,1.5
7.8,60,-1,1.5
7.8,60,-0.7,1.5
7.8,60,-0.4,1.4
7.8,60,-0.2,1.4
7.8,60,0,1.4
7.8,60,0,1.4
7.8,60,-0.1,1.5
7.8,60,-0.3,1.7
7.8,61,-0.5,1.8
7.8,61,-0.8,1.9
7.8,61,-1.1,1.9
7.8,61,-1.4,1.8
7.8,61,-1.7,1.6
7.8,61,-2,1.3
7.8,61,-2.3,0.9
7.8,61,-2.7,0.4
7.8,61,-3.1,-0.2
7.8,61,-3.6,-1
7.8,61,-4.1,-1.8
7.9,61,-4.5,-2.7
7.9,61,-4.9,-3.7
7.9,61,-5.1,-4.6
7.9,61,-5.2,-5.5
7.9,61,-5.1,-6.2
7.9,61,-4.9,-6.8
7.9,61,-4.5,-7.1
7.9,61,-3.9,-7.1
7.9,61,-3.3,-6.9
7.9,61,-2.6,-6.5
7.9,61,-1.9,-5.7
7.9,61,-1.2,-4.8
7.9,61,-0.5,-3.6
7.9,61,0.2,-2.2
7.9,61,0.7,-0.9
7.9,61,1.1,0.3
7.9,61,1.3,1.5
7.9,61,1.3,2.4
7.9,61,1.1,3.1
7.9,61,0.8,3.5
7.9,61,0.3,3.7
7.9,62,-0.2,3.8
7.9,62,-0.8,3.6
7.9,62,-1.4,3.3
7.9,62,-1.9,2.8
8,62,-2.5,2.2
8,62,-3,1.5
8,62,-3.6,0.7
8,62,-4.1,-0.1
8,62,-4.5,-0.9
8,62,-4.9,-1.7
8,62,-5.3,-2.3
8,62,-5.6,-2.8
8,62,-5.8,-3.1
8,62,-5.8,-3.3
8,62,-5.7,-3.2
8,62,-5.5,-2.9
8,62,-5,-2.4
8,62,-4.3,-1.8
8,62,-3.5,-1.1
8,62,-2.6,-0.2
8,62,-1.6,0.6
8,62,-0.5,1.6
8,62,0.6,2.4
8,62,1.6,3.2
8,62,2.5,3.9
8,62,3.3,4.3
8,62,3.9,4.6
8,62,4.2,4.7
8,62,4.3,4.6
8.1,62,4.2,4.3
8.1,62,4,4
8.1,62,3.7,3.5
8.1,63,3.4,3.1
8.1,63,3.2,2.8
8.1,63,3,2.4
8.1,63,2.8,2.1
8.1,63,2.7,1.9
8.1,63,2.7,1.6
8.1,63,2.6,1.3
8.1,63,2.6,1.1
8.1,63,2.6,0.8
8.1,63,2.7,0.6
8.1,63,2.7,0.3
8.1,63,2.7,0.1
8.1,63,2.7,-0.1
8.1,63,2.7,-0.3
8.1,63,2.6,-0.4
8.1,63,2.5,-0.4
8.1,63,2.3,-0.3
8.1,63,2,-0.1
8.1,63,1.6,0.1
8.1,63,1.3,0.3
8.1,63,1,0.5
8.1,63,0.6,0.8
8.2,63,0.3,1
8.2,63,0.1,1.2
8.2,63,-0.2,1.4
8.2,63,-0.5,1.5
8.2,63,-0.8,1.6
8.2,63,-1.1,1.7
8.2,63,-1.3,1.8
8.2,63,-1.4,1.8
8.2,63,-1.5,1.7
8.2,63,-1.5,1.6
8.2,64,-1.5,1.3
8.2,64,-1.4,1
8.2,64,-1.2,0.7
8.2,64,-1,0.2
8.2,64,-0.8,-0.2
8.2,64,-0.5,-0.7
8.2,64,-0.2,-1.3
8.2,64,0.1,-1.8
8.2,64,0.4,-2.2
8.2,64,0.6,-2.6
8.2,64,0.8,-2.9
8.2,64,1,-3.2
8.2,64,1.1,-3.3
8.2,64,1.2,-3.4
8.2,64,1.3,-3.3
8.3,64,1.3,-3.2
8.3,64,1.3,-2.9
8.3,64,1.2,-2.6
8.3,64,1.2,-2.1
8.3,64,1.1,-1.6
8.3,64,0.9,-1
8.3,64,0.7,-0.2
8.3,64,0.4,0.5
8.3,64,0,1.3
8.3,64,-0.4,2.1
8.3,64,-0.9,2.8
8.3,64,-1.3,3.4
8.3,64,-1.6,3.8
8.3,64,-1.9,4.2
8.3,64,-2.2,4.5
8.3,64,-2.4,4.8
8.3,64,-2.5,4.9
8.3,65,-2.7,4.9
8.3,65,-2.8,4.8
8.3,65,-2.9,4.6
8.3,65,-3,4.3
8.3,65,-3,4
8.3,65,-2.9,3.6
8.3,65,-2.8,3.2
8.3,65,-2.6,2.7
8.4,65,-2.4,2.3
8.4,65,-2.2,1.9
8.4,65,-1.9,1.6
8.4,65,-1.8,1.3
8.4,65,-1.7,1
8.4,65,-1.7,0.8
8.4,65,-1.7,0.7
8.4,65,-1.7,0.8
8.4,65,-1.6,1
8.4,65,-1.5,1.3
8.4,65,-1.3,1.8
8.4,65,-0.9,2.3
8.4,65,-0.5,2.9
8.4,65,0,3.5
8.4,65,0.4,4.1
8.4,65,0.8,4.6
8.4,65,1,5
8.4,65,1,5.3
8.4,65,0.9,5.5
8.4,65,0.7,5.6
8.4,65,0.5,5.5
8.4,65,0.2,5.4
8.4,65,0,5.2
8.4,65,-0.3,5
8.4,66,-0.6,4.7
8.5,66,-0.9,4.4
8.5,66,-1,4.1
8.5,66,-1.2,3.7
8.5,66,-1.2,3.3
8.5,66,-1.3,2.8
8.5,66,-1.3,2.3
8.5,66,-1.3,1.7
8.5,66,-1.4,1
8.5,66,-1.4,0.4
8.5,66,-1.4,-0.3
8.5,66,-1.4,-0.9
8.5,66,-1.4,-1.5
8.5,66,-1.4,-2.2
8.5,66,-1.3,-2.8
8.5,66,-1.3,-3.4
8.5,66,-1.2,-3.9
8.5,66,-1.2,-4.4
8.5,66,-1.2,-4.9
8.5,66,-1.2,-5.2
8.5,66,-1.2,-5.4
8.5,66,-1.3,-5.6
8.5,66,-1.3,-5.6
8.5,66,-1.3,-5.5
8.5,66,-1.2,-5.4
8.5,66,-0.9,-5.1
8.6,66,-0.6,-4.8
8.6,66,-0.1,-4.4
8.6,66,0.4,-3.9
8.6,66,0.9,-3.3
8.6,66,1.4,-2.7
8.6,66,1.9,-2.1
8.6,67,2.3,-1.5
8.6,67,2.6,-0.9
8.6,67,2.9,-0.4
8.6,67,3.1,0.1
8.6,67,3.2,0.5
8.6,67,3.3,0.8
8.6,67,3.2,1
8.6,67,3.1,1
8.6,67,2.8,1
8.6,67,2.6,0.9
8.6,67,2.3,0.7
8.6,67,2,0.4
8.6,67,1.7,0.1
8.6,67,1.4,-0.2
8.6,67,1.3,-0.6
8.6,67,1.2,-1
8.6,67,1.3,-1.3
8.6,67,1.5,-1.6
8.6,67,1.7,-1.7
8.7,67,2,-1.8
8.7,67,2.3,-1.8
8.7,67,2.7,-1.7
8.7,67,3,-1.5
8.7,67,3.2,-1.2
8.7,67,3.4,-0.9
8.7,67,3.5,-0.6
8.7,67,3.6,-0.3
8.7,67,3.6,0
8.7,67,3.4,0.2
8.7,67,3.3,0.3
8.7,67,3,0.4
8.7,67,2.7,0.5
8.7,68,2.2,0.5
8.7,68,1.7,0.6
8.7,68,1.1,0.6
8.7,68,0.6,0.7
8.7,68,0.2,0.9
8.7,68,0,1.1
8.7,68,-0.1,1.3
8.7,68,0,1.6
8.7,68,0.2,1.8
8.7,68,0.5,2.1
8.7,68,1,2.2
8.7,68,1.5,2.4
8.8,68,2,2.5
8.8,68,2.6,2.5
8.8,68,3.2,2.6
8.8,68,3.8,2.5
8.8,68,4.3,2.5
8.8,68,4.8,2.4
8.8,68,5.1,2.3
8.8,68,5.2,2.1
8.8,68,5.2,2
8.8,68,5,1.8
8.8,68,4.8,1.5
8.8,68,4.4,1.2
8.8,68,4.1,0.8
8.8,68,3.7,0.4
8.8,68,3.2,-0.2
8.8,68,2.8,-0.7
8.8,68,2.4,-1.1
8.8,68,1.9,-1.5
8.8,68,1.5,-1.8
8.8,68,1,-2
8.8,69,0.6,-2.1
8.8,69,0.2,-2.1
8.8,69,-0.1,-2
8.8,69,-0.4,-1.8
8.8,69,-0.6,-1.5
8.9,69,-0.7,-1.2
8.9,69,-0.8,-0.7
8.9,69,-0.8,-0.3
8.9,69,-0.7,0.2
8.9,69,-0.5,0.7
8.9,69,-0.3,1.2
8.9,69,0.1,1.7
8.9,69,0.5,2.3
8.9,69,1,2.9
8.9,69,1.5,3.5
8.9,69,2,3.9
8.9,69,2.6,4.3
8.9,69,3.1,4.4
8.9,69,3.5,4.4
8.9,69,3.9,4.2
8.9,69,4.2,3.8
8.9,69,4.4,3.3
8.9,69,4.4,2.7
8.9,69,4.2,2
8.9,69,3.8,1.4
8.9,69,3.2,0.9
8.9,69,2.6,0.5
8.9,69,1.8,0.2
8.9,69,1,-0.1
8.9,69,0.2,-0.2
9,69,-0.7,-0.4
9,69,-1.5,-0.6
9,70,-2.2,-0.7
9,70,-2.9,-0.8
9,70,-3.5,-0.9
9,70,-4.1,-0.9
9,70,-4.5,-0.9
9,70,-4.8,-0.8
9,70,-4.9,-0.7
9,70,-4.9,-0.6
9,70,-4.7,-0.4
9,70,-4.4,-0.2
9,70,-4,0.1
9,70,-3.5,0.4
9,70,-2.9,0.7
9,70,-2.4,1
9,70,-1.9,1.2
9,70,-1.5,1.5
9,70,-1.3,1.6
9,70,-1.2,1.7
9,70,-1.3,1.6
9,70,-1.4,1.4
9,70,-1.6,1.1
9,70,-1.9,0.8
9,70,-2.2,0.4
9.1,70,-2.5,0
9.1,70,-2.8,-0.3
9.1,70,-3,-0.7
9.1,70,-3,-1
9.1,70,-3,-1.4
9.1,70,-2.8,-1.7
9.1,70,-2.5,-1.8
9.1,70,-2.1,-1.9
9.1,70,-1.6,-1.9
9.1,71,-1.2,-1.8
9.1,71,-0.6,-1.5
9.1,71,-0.1,-1.2
9.1,71,0.4,-0.8
9.1,71,0.9,-0.4
9.1,71,1.3,-0.1
9.1,71,1.7,0.3
9.1,71,2,0.6
9.1,71,2.3,0.9
9.1,71,2.4,1.1
9.1,71,2.5,1.3
9.1,71,2.5,1.5
9.1,71,2.5,1.7
9.1,71,2.4,1.8
9.1,71,2.2,1.9
9.1,71,2,1.9
9.2,71,1.8,1.8
9.2,71,1.5,1.6
9.2,71,1.2,1.3
9.2,71,0.9,0.9
9.2,71,0.5,0.4
9.2,71,0.1,-0.3
9.2,71,-0.2,-1
9.2,71,-0.6,-1.9
9.2,71,-0.9,-2.8
9.2,71,-1.2,-3.6
9.2,71,-1.5,-4.4
9.2,71,-1.8,-5
9.2,71,-2.1,-5.5
9.2,71,-2.3,-5.7
9.2,71,-2.4,-5.6
9.2,71,-2.3,-5.2
9.2,72,-2.2,-4.7
9.2,72,-1.9,-4
9.2,72,-1.7,-3.2
9.2,72,-1.4,-2.3
9.2,72,-1.2,-1.3
9.2,72,-1,-0.4
9.2,72,-0.8,0.5
9.2,72,-0.8,1.4
9.2,72,-0.8,2.1
9.3,72,-0.9,2.8
9.3,72,-1,3.4
9.3,72,-1.1,3.8
9.3,72,-1.1,4
9.3,72,-1.1,4.2
9.3,72,-1.2,4.1
9.3,72,-1.2,3.8
9.3,72,-1.2,3.3
9.3,72,-1.3,2.6
9.3,72,-1.5,1.7
9.3,72,-1.7,0.8
9.3,72,-2,-0.2
9.3,72,-2.2,-1.2
9.3,72,-2.5,-2.1
9.3,72,-2.7,-2.9
9.3,72,-2.9,-3.6
9.3,72,-3.1,-4.1
9.3,72,-3.3,-4.6
9.3,72,-3.5,-4.8
9.3,72,-3.6,-5
9.3,72,-3.8,-5
9.3,72,-3.9,-4.9
9.3,72,-4,-4.6
9.3,73,-4,-4.4
9.3,73,-4.1,-4
9.4,73,-4.1,-3.7
9.4,73,-4.1,-3.3
9.4,73,-4.2,-3
9.4,73,-4.3,-2.7
9.4,73,-4.5,-2.4
9.4,73,-4.8,-2.2
9.4,73,-5.3,-2.1
9.4,73,-5.9,-2.1
9.4,73,-6.7,-2.4
9.4,73,-7.7,-2.8
9.4,73,-8.7,-3.4
9.4,73,-9.6,-4.2
9.4,73,-10.3,-5.3
9.4,73,-10.8,-6.8
9.4,73,-11,-8.7
9.4,73,-11.1,-11.4
9.4,73,-11.2,-14.9
9.4,73,-11.5,-19.3
9.4,73,-12.1,-24.7
9.4,73,-13,-31
9.4,73,-14.3,-38.3
9.4,73,-16.1,-46.6
9.4,73,-18.4,-55.9
9.4,73,-21.2,-66.1
9.4,73,-24.3,-76.8
9.5,73,-27.6,-87.9
9.5,73,-30.9,-98.8
9.5,73,-34.2,-109.2
9.5,73,-37.1,-118.5
9.5,73,-39.8,-126.4
9.5,74,-42,-132.5
9.5,74,-43.6,-136.5
9.5,74,-44.6,-138
9.5,74,-44.9,-137.1
9.5,74,-44.3,-133.6
9.5,74,-42.9,-127.8
9.5,74,-40.8,-119.9
9.5,74,-38.1,-110
9.5,74,-34.7,-98.5
9.5,74,-30.8,-85.8
9.5,74,-26.7,-72.3
9.5,74,-22.3,-58.3
9.5,74,-17.8,-44.3
9.5,74,-13.4,-30.6
9.5,74,-9,-17.6
9.5,74,-4.8,-5.6
9.5,74,-0.9,5.2
9.5,74,2.7,14.8
9.5,74,6.1,23.1
9.5,74,9,30.2
9.6,74,11.7,36.2
9.6,74,14.2,41.4
9.6,74,16.4,46
9.6,74,18.5,50.3
9.6,74,20.6,54.5
9.6,74,22.6,58.8
9.6,74,24.7,63.4
9.6,74,26.9,68.3
9.6,74,29.1,73.7
9.6,74,31.4,79.7
9.6,74,33.7,86.2
9.6,74,36,93.1
9.6,75,38.2,100.5
9.6,75,40.2,108
9.6,75,42.1,115.7
9.6,75,43.8,123.3
9.6,75,45.4,130.6
9.6,75,47,137.6
9.6,75,48.6,144
9.6,75,50.1,149.9
9.6,75,51.7,155.1
9.6,75,53.1,159.6
9.6,75,54.5,163.1
9.6,75,55.6,165.7
9.6,75,56.6,167.5
9.7,75,57.4,168.4
9.7,75,58,168.4
9.7,75,58.4,167.6
9.7,75,58.6,165.9
9.7,75,58.5,163.6
9.7,75,58.2,160.5
9.7,75,57.7,156.9
9.7,75,57.1,152.7
9.7,75,56.2,148.1
9.7,75,55.2,143.2
9.7,75,54,138
9.7,75,52.6,132.6
9.7,75,51.1,127
9.7,75,49.3,121.4
9.7,75,47.4,115.8
9.7,75,45.3,110.2
9.7,75,43.1,104.6
9.7,75,40.8,99.2
9.7,75,38.4,93.9
9.7,76,35.9,88.7
9.7,76,33.5,83.5
9.7,76,31,78.3
9.7,76,28.5,73.1
9.7,76,25.9,67.8
9.7,76,23.4,62.4
9.8,76,21,57
9.8,76,18.6,51.6
9.8,76,16.4,46.1
9.8,76,14.2,40.7
9.8,76,12.2,35.4
9.8,76,10.2,30.2
9.8,76,8.4,25.1
9.8,76,6.7,20.1
9.8,76,5.1,15.2
9.8,76,3.6,10.4
9.8,76,2.2,5.6
9.8,76,0.8,0.8
9.8,76,-0.4,-4
9.8,76,-1.6,-8.8
9.8,76,-2.8,-13.7
9.8,76,-3.9,-18.5
9.8,76,-5.1,-23.2
9.8,76,-6.2,-27.9
9.8,76,-7.2,-32.4
9.8,76,-8.3,-36.8
9.8,76,-9.5,-40.9
9.8,76,-10.7,-44.8
9.8,76,-12,-48.4
9.8,76,-13.2,-51.8
9.8,76,-14.5,-55
9.9,76,-15.7,-57.9
9.9,77,-16.8,-60.5
9.9,77,-17.8,-62.8
9.9,77,-18.8,-64.9
9.9,77,-19.7,-66.7
9.9,77,-20.4,-68.2
9.9,77,-21.1,-69.5
9.9,77,-21.6,-70.5
9.9,77,-22.1,-71.4
9.9,77,-22.6,-72.3
9.9,77,-23.1,-73.1
9.9,77,-23.5,-73.9
9.9,77,-23.8,-74.8
9.9,77,-24.2,-75.8
9.9,77,-24.6,-76.8
9.9,77,-24.9,-77.8
9.9,77,-25.4,-78.9
9.9,77,-25.9,-80
9.9,77,-26.4,-81.1
9.9,77,-27,-82.3
9.9,77,-27.6,-83.5
9.9,77,-28.2,-84.7
9.9,77,-28.8,-85.9
9.9,77,-29.3,-87
9.9,77,-29.8,-88.2
10,77,-30.2,-89.2
10,77,-30.5,-90.2
10,77,-30.7,-91.1
10,77,-30.8,-91.7
10,77,-30.8,-92.2
10,77,-30.8,-92.6
10,77,-30.7,-92.6
10,77,-30.6,-92.5
10,78,-30.4,-92.2
10,78,-30.3,-91.5
10,78,-30.1,-90.7
10,78,-29.9,-89.6
10,78,-29.6,-88.3
10,78,-29.4,-86.9
10,78,-29.1,-85.4
10,78,-28.9,-84
10,78,-28.6,-82.4
10,78,-28.4,-80.9
10,78,-28.1,-79.3
10,78,-27.8,-77.7
10,78,-27.6,-76.1
10,78,-27.2,-74.7
10,78,-26.9,-73.3
10,78,-26.4,-72
10,78,-25.9,-70.8
10.1,78,-25.3,-69.7
10.1,78,-24.6,-68.7
10.1,78,-24,-67.8
10.1,78,-23.4,-67
10.1,78,-22.8,-66.1
10.1,78,-22.3,-65.2
10.1,78,-21.9,-64.2
10.1,78,-21.6,-63
10.1,78,-21.3,-61.7
10.1,78,-21.2,-60.3
10.1,78,-21.1,-58.7
10.1,78,-21.1,-57.1
10.1,78,-21.1,-55.3
10.1,78,-21.1,-53.4
10.1,78,-21.1,-51.4
10.1,79,-21,-49.3
10.1,79,-20.9,-47.1
10.1,79,-20.7,-44.9
10.1,79,-20.4,-42.6
10.1,79,-19.9,-40.3
10.1,79,-19.3,-38
10.1,79,-18.6,-35.7
10.1,79,-17.7,-33.4
10.1,79,-16.6,-31.2
10.1,79,-15.4,-29.1
10.2,79,-14.2,-27.2
10.2,79,-12.9,-25.3
10.2,79,-11.6,-23.5
10.2,79,-10.4,-21.8
10.2,79,-9.3,-20.1
10.2,79,-8.4,-18.5
10.2,79,-7.6,-16.8
10.2,79,-7,-15.1
10.2,79,-6.4,-13.4
10.2,79,-6,-11.6
10.2,79,-5.7,-9.7
10.2,79,-5.5,-7.8
10.2,79,-5.2,-5.9
10.2,79,-4.9,-4
10.2,79,-4.5,-2.2
10.2,79,-4,-0.3
10.2,79,-3.5,1.4
10.2,79,-2.8,3.2
10.2,79,-2.2,4.8
10.2,79,-1.5,6.4
10.2,79,-0.9,7.9
10.2,79,-0.4,9.3
10.2,80,0,10.6
10.2,80,0.4,11.7
10.2,80,0.7,12.7
10.3,80,1,13.4
10.3,80,1.4,13.9
10.3,80,1.9,14.2
10.3,80,2.5,14.5
10.3,80,3.1,14.7
10.3,80,3.8,14.9
10.3,80,4.5,15.2
10.3,80,5.3,15.4
10.3,80,6,15.8
10.3,80,6.6,16.2
10.3,80,7.2,16.6
10.3,80,7.6,17.1
10.3,80,7.9,17.7
10.3,80,7.9,18.4
10.3,80,7.8,19.3
10.3,80,7.6,20.3
10.3,80,7.2,21.4
10.3,80,6.7,22.6
10.3,80,6.2,24
10.3,80,5.6,25.4
10.3,80,5.1,26.8
10.3,80,4.6,28.1
10.3,80,4.2,29.4
10.3,80,3.9,30.7
10.3,80,3.8,31.8
10.4,80,3.8,32.9
10.4,80,4,33.9
10.4,80,4.4,34.9
10.4,80,4.8,35.7
10.4,81,5.2,36.4
10.4,81,5.6,37
10.4,81,6,37.6
10.4,81,6.3,38
10.4,81,6.7,38.4
10.4,81,7,38.7
10.4,81,7.3,38.9
10.4,81,7.6,39
10.4,81,7.9,38.9
10.4,81,8.3,38.7
10.4,81,8.6,38.5
10.4,81,9,38.3
10.4,81,9.5,38.1
10.4,81,9.9,38
10.4,81,10.4,37.9
10.4,81,10.8,37.8
10.4,81,11.1,37.8
10.4,81,11.5,37.8
10.4,81,11.8,37.8
10.4,81,12,37.7
10.4,81,12.3,37.6
10.5,81,12.5,37.6
10.5,81,12.8,37.5
10.5,81,13,37.5
10.5,81,13.3,37.5
10.5,81,13.5,37.4
10.5,81,13.7,37.3
10.5,81,13.8,37.2
10.5,81,13.9,37.1
10.5,81,13.9,37
10.5,81,13.9,36.9
10.5,81,13.8,36.8
10.5,82,13.7,36.6
10.5,82,13.7,36.4
10.5,82,13.6,36.1
10.5,82,13.6,35.7
10.5,82,13.8,35.2
10.5,82,14,34.6
10.5,82,14.2,33.8
10.5,82,14.5,32.9
10.5,82,14.7,31.9
10.5,82,14.8,30.8
10.5,82,14.9,29.6
10.5,82,14.8,28.5
10.5,82,14.6,27.3
10.5,82,14.2,26.1
10.6,82,13.7,24.9
10.6,82,13.3,23.9
10.6,82,12.8,23
10.6,82,12.5,22.2
10.6,82,12.3,21.7
10.6,82,12.3,21.3
10.6,82,12.3,21
10.6,82,12.4,20.9
10.6,82,12.5,20.9
10.6,82,12.7,21
10.6,82,12.9,21.2
10.6,82,13,21.4
10.6,82,13,21.7
10.6,82,13,22.1
10.6,82,13,22.4
10.6,82,12.9,22.6
10.6,82,12.9,22.8
10.6,82,12.8,22.9
10.6,83,12.8,22.8
10.6,83,12.7,22.6
10.6,83,12.7,22.2
10.6,83,12.6,21.7
10.6,83,12.4,21.1
10.6,83,12.2,20.3
10.6,83,11.9,19.3
10.7,83,11.5,18.3
10.7,83,11.1,17.2
10.7,83,10.6,16
10.7,83,10,14.7
10.7,83,9.4,13.4
10.7,83,8.7,12.1
10.7,83,8,11
10.7,83,7.3,10
10.7,83,6.6,9.2
10.7,83,5.9,8.7
10.7,83,5.4,8.3
10.7,83,4.9,8.1
10.7,83,4.5,8
10.7,83,4.3,8
10.7,83,4.2,8.1
10.7,83,4.3,8.3
10.7,83,4.4,8.5
10.7,83,4.6,8.7
10.7,83,4.8,8.8
10.7,83,4.9,8.7
10.7,83,5,8.6
10.7,83,5,8.1
10.7,83,5,7.5
10.7,83,4.8,6.6
10.7,83,4.5,5.6
10.8,84,4.1,4.4
10.8,84,3.5,3.2
10.8,84,2.8,2
10.8,84,2.1,0.9
10.8,84,1.2,-0.2
10.8,84,0.3,-1.2
10.8,84,-0.6,-2
10.8,84,-1.5,-2.7
10.8,84,-2.4,-3.2
10.8,84,-3.2,-3.7
10.8,84,-3.9,-4
10.8,84,-4.6,-4.2
10.8,84,-5.2,-4.4
10.8,84,-5.8,-4.6
10.8,84,-6.2,-4.8
10.8,84,-6.4,-5
10.8,84,-6.4,-5.2
10.8,84,-6.3,-5.5
10.8,84,-6.1,-5.8
10.8,84,-5.8,-6.2
10.8,84,-5.4,-6.6
10.8,84,-4.9,-7
10.8,84,-4.2,-7.3
10.8,84,-3.4,-7.7
10.8,84,-2.5,-8
10.9,84,-1.5,-8.4
10.9,84,-0.6,-8.9
10.9,84,0.2,-9.3
10.9,84,0.8,-9.8
10.9,84,1.2,-10.2
10.9,84,1.3,-10.5
10.9,84,1.1,-10.8
10.9,85,0.8,-10.9
10.9,85,0.4,-10.8
10.9,85,-0.2,-10.7
10.9,85,-0.7,-10.6
10.9,85,-1.3,-10.6
10.9,85,-1.9,-10.6
10.9,85,-2.3,-10.6
10.9,85,-2.7,-10.8
10.9,85,-3,-10.9
10.9,85,-3.3,-11
10.9,85,-3.5,-11.2
10.9,85,-3.7,-11.2
10.9,85,-3.8,-11.3
10.9,85,-4,-11.3
10.9,85,-4.2,-11.4
10.9,85,-4.4,-11.5
10.9,85,-4.4,-11.7
10.9,85,-4.4,-11.8
11,85,-4.3,-12
11,85,-4.1,-12.2
11,85,-3.7,-12.2
11,85,-3.3,-12.1
11,85,-2.8,-11.9
11,85,-2.4,-11.6
11,85,-2,-11.2
11,85,-1.7,-10.6
11,85,-1.5,-10
11,85,-1.5,-9.3
11,85,-1.5,-8.7
11,85,-1.6,-8
11,85,-1.8,-7.5
11,85,-1.9,-7.1
11,86,-2.1,-6.9
11,86,-2.3,-6.8
11,86,-2.5,-6.8
11,86,-2.8,-7
11,86,-3,-7.3
11,86,-3.3,-7.7
11,86,-3.7,-8.1
11,86,-4,-8.6
11,86,-4.3,-9
11,86,-4.5,-9.3
11,86,-4.7,-9.6
11.1,86,-4.8,-9.9
11.1,86,-4.8,-10.1
11.1,86,-4.7,-10.2
11.1,86,-4.5,-10.3
11.1,86,-4.3,-10.3
11.1,86,-4.1,-10.2
11.1,86,-4,-10.1
11.1,86,-3.9,-9.9
11.1,86,-3.8,-9.7
11.1,86,-3.8,-9.5
11.1,86,-3.8,-9.2
11.1,86,-3.7,-8.9
11.1,86,-3.7,-8.6
11.1,86,-3.6,-8.4
11.1,86,-3.5,-8.2
11.1,86,-3.5,-8.1
11.1,86,-3.5,-8.2
11.1,86,-3.6,-8.4
11.1,86,-3.8,-8.9
11.1,86,-4.1,-9.4
11.1,86,-4.5,-10
11.1,87,-4.9,-10.6
11.1,87,-5.3,-11.1
11.1,87,-5.7,-11.6
11.1,87,-6,-12
11.2,87,-6.3,-12.3
11.2,87,-6.6,-12.4
11.2,87,-6.9,-12.5
11.2,87,-7,-12.3
11.2,87,-6.9,-11.9
11.2,87,-6.7,-11.4
11.2,87,-6.3,-10.6
11.2,87,-5.8,-9.7
11.2,87,-5.3,-8.7
11.2,87,-4.7,-7.5
11.2,87,-4.1,-6.4
11.2,87,-3.7,-5.2
11.2,87,-3.4,-4.2
11.2,87,-3.2,-3.2
11.2,87,-3.2,-2.3
11.2,87,-3.4,-1.5
11.2,87,-3.6,-0.9
11.2,87,-3.9,-0.3
11.2,87,-4.1,0.1
11.2,87,-4.4,0.4
11.2,87,-4.6,0.6
11.2,87,-4.6,0.6
11.2,87,-4.6,0.5
11.2,87,-4.4,0.3
11.2,87,-4.1,0
11.3,87,-3.7,-0.3
11.3,87,-3.2,-0.7
11.3,87,-2.6,-1.1
11.3,88,-1.9,-1.5
11.3,88,-1,-1.8
11.3,88,-0.2,-2.1
11.3,88,0.7,-2.2
11.3,88,1.6,-2.4
11.3,88,2.3,-2.4
11.3,88,3,-2.3
11.3,88,3.5,-2.1
11.3,88,3.7,-1.9
11.3,88,3.7,-1.5
11.3,88,3.6,-1.2
11.3,88,3.2,-0.7
11.3,88,2.6,-0.4
11.3,88,2,0
11.3,88,1.3,0.3
11.3,88,0.6,0.5
11.3,88,-0.1,0.6
11.3,88,-0.7,0.6
11.3,88,-1.4,0.5
11.3,88,-1.9,0.3
11.3,88,-2.5,0.1
11.3,88,-3,-0.1
11.4,88,-3.5,-0.3
11.4,88,-3.9,-0.3
11.4,88,-4.2,-0.3
11.4,88,-4.4,-0.3
11.4,88,-4.4,-0.1
11.4,88,-4.2,0.1
11.4,88,-3.8,0.4
11.4,88,-3.4,0.8
11.4,88,-2.8,1.2
11.4,88,-2.2,1.6
11.4,89,-1.7,2.1
11.4,89,-1.1,2.5
11.4,89,-0.6,2.8
11.4,89,-0.2,3.1
11.4,89,0,3.2
11.4,89,0.2,3.2
11.4,89,0.2,3
11.4,89,0.1,2.8
11.4,89,0,2.6
11.4,89,-0.1,2.3
11.4,89,-0.3,2
11.4,89,-0.5,1.8
11.4,89,-0.7,1.6
11.4,89,-0.9,1.4
11.4,89,-1.2,1.2
11.5,89,-1.4,0.9
11.5,89,-1.7,0.5
11.5,89,-1.8,0.1
11.5,89,-1.8,-0.4
11.5,89,-1.6,-0.8
11.5,89,-1.2,-1.2
11.5,89,-0.7,-1.5
11.5,89,0,-1.8
11.5,89,0.8,-2
11.5,89,1.5,-2.1
11.5,89,2.1,-2.1
11.5,89,2.6,-1.9
11.5,89,3,-1.7
11.5,89,3.2,-1.3
11.5,89,3.3,-0.7
11.5,89,3.2,0
11.5,89,2.9,0.7
11.5,90,2.6,1.4
11.5,90,2.3,2.1
11.5,90,1.9,2.8
11.5,90,1.6,3.5
11.5,90,1.5,4.3
11.5,90,1.7,5.1
11.5,90,2,5.8
11.5,90,2.5,6.5
11.6,90,3.2,7.2
11.6,90,4,7.8
11.6,90,4.8,8.4
11.6,90,5.6,8.8
11.6,90,6.4,9.2
11.6,90,7,9.4
11.6,90,7.4,9.6
11.6,90,7.6,9.6
11.6,90,7.5,9.6
11.6,90,7.2,9.3
11.6,90,6.7,8.9
11.6,90,5.8,8.4
11.6,90,4.8,7.8
11.6,90,3.7,7.1
11.6,90,2.5,6.4
11.6,90,1.3,5.7
11.6,90,0.3,5
11.6,90,-0.7,4.3
11.6,90,-1.6,3.6
11.6,90,-2.2,2.9
11.6,90,-2.7,2.3
11.6,90,-3,1.7
11.6,90,-3.1,1.2
11.6,90,-3.1,0.7
11.6,91,-2.9,0.1
11.7,91,-2.6,-0.4
11.7,91,-2.2,-1
11.7,91,-1.8,-1.5
11.7,91,-1.3,-2
11.7,91,-0.6,-2.5
11.7,91,0.1,-2.9
11.7,91,0.9,-3.2
11.7,91,1.8,-3.3
11.7,91,2.7,-3.4
11.7,91,3.6,-3.3
11.7,91,4.5,-3
11.7,91,5.4,-2.7
11.7,91,6.1,-2.1
11.7,91,6.8,-1.4
11.7,91,7.3,-0.5
11.7,91,7.6,0.5
11.7,91,7.7,1.5
11.7,91,7.6,2.7
11.7,91,7.3,3.7
11.7,91,6.7,4.7
11.7,91,6,5.5
11.7,91,5.1,6.2
11.7,91,4.1,6.7
11.7,91,3.2,6.9
11.7,91,2.2,7.1
11.8,91,1.4,7.1
11.8,91,0.6,7
11.8,91,0,6.7
11.8,91,-0.6,6.3
11.8,91,-1.1,5.7
11.8,91,-1.5,5
11.8,92,-1.8,4.2
11.8,92,-2,3.3
11.8,92,-2.1,2.4
11.8,92,-2.2,1.5
11.8,92,-2.2,0.5
11.8,92,-2.1,-0.3
11.8,92,-2,-1.1
11.8,92,-1.8,-1.8
11.8,92,-1.7,-2.3
11.8,92,-1.6,-2.7
11.8,92,-1.5,-2.9
11.8,92,-1.5,-3
11.8,92,-1.5,-3.1
11.8,92,-1.5,-3
11.8,92,-1.5,-3
11.8,92,-1.5,-3
11.8,92,-1.5,-3
11.8,92,-1.5,-3
11.8,92,-1.4,-3
11.9,92,-1.3,-3
11.9,92,-1.1,-3
11.9,92,-0.8,-2.9
11.9,92,-0.5,-2.8
11.9,92,-0.1,-2.7
11.9,92,0.4,-2.5
11.9,92,0.8,-2.5
11.9,92,1.2,-2.4
11.9,92,1.6,-2.5
11.9,92,2,-2.6
11.9,92,2.3,-2.7
11.9,92,2.5,-2.9
11.9,92,2.7,-3
11.9,93,2.7,-3.2
11.9,93,2.7,-3.3
11.9,93,2.4,-3.6
11.9,93,2,-3.8
11.9,93,1.3,-4.1
11.9,93,0.4,-4.4
11.9,93,-0.7,-4.8
11.9,93,-1.8,-5.1
11.9,93,-2.9,-5.5
11.9,93,-4,-5.8
11.9,93,-4.9,-6.1
11.9,93,-5.6,-6.5
12,93,-6.1,-6.8
12,93,-6.4,-7.1
12,93,-6.5,-7.4
12,93,-6.4,-7.6
12,93,-6.1,-7.7
12,93,-5.7,-7.7
12,93,-5.2,-7.6
12,93,-4.7,-7.3
12,93,-4.1,-6.9
12,93,-3.5,-6.4
12,93,-3,-5.9
12,93,-2.5,-5.4
12,93,-2.1,-5
12,93,-1.9,-4.6
12,93,-1.9,-4.2
12,93,-2,-3.9
12,93,-2.3,-3.7
12,93,-2.7,-3.5
12,93,-3.2,-3.4
12,93,-3.7,-3.4
12,94,-4.2,-3.4
12,94,-4.6,-3.5
12,94,-4.9,-3.7
12,94,-5.1,-3.9
12,94,-5.2,-4
12.1,94,-5.2,-4.1
12.1,94,-5,-4.1
12.1,94,-4.7,-3.9
12.1,94,-4.4,-3.6
12.1,94,-3.9,-3.1
12.1,94,-3.4,-2.5
12.1,94,-2.8,-1.7
12.1,94,-2.1,-0.9
12.1,94,-1.5,0
12.1,94,-0.9,1
12.1,94,-0.3,1.9
12.1,94,0.1,2.8
12.1,94,0.4,3.6
12.1,94,0.5,4.2
12.1,94,0.5,4.7
12.1,94,0.5,5
12.1,94,0.4,5.1
12.1,94,0.4,5
12.1,94,0.4,4.7
12.1,94,0.3,4.4
12.1,94,0.3,3.9
12.1,94,0.2,3.5
12.1,94,0.1,3
12.1,94,0,2.5
12.1,94,0,1.9
12.2,94,0.1,1.3
12.2,94,0.2,0.8
12.2,95,0.5,0.2
12.2,95,0.8,-0.2
12.2,95,1.1,-0.5
12.2,95,1.4,-0.7
12.2,95,1.8,-0.7
12.2,95,2.1,-0.5
12.2,95,2.4,-0.3
12.2,95,2.7,0
12.2,95,2.9,0.3
12.2,95,3,0.7
12.2,95,3,1.1
12.2,95,3,1.5
12.2,95,3,1.9
12.2,95,3,2.3
12.2,95,2.9,2.7
12.2,95,2.8,3
12.2,95,2.7,3.3
12.2,95,2.5,3.5
12.2,95,2.3,3.7
12.2,95,2.1,3.8
12.2,95,1.7,3.9
12.2,95,1.4,4
12.2,95,0.9,4.1
12.3,95,0.5,4.2
12.3,95,0.1,4.3
12.3,95,-0.3,4.3
12.3,95,-0.6,4.4
12.3,95,-0.9,4.4
12.3,95,-1.1,4.4
12.3,95,-1.3,4.3
12.3,95,-1.3,4.2
12.3,95,-1.1,3.9
12.3,96,-0.9,3.6
12.3,96,-0.5,3.2
12.3,96,-0.1,2.8
12.3,96,0.4,2.2
12.3,96,0.7,1.6
12.3,96,0.8,0.8
12.3,96,0.8,-0.1
12.3,96,0.5,-1.1
12.3,96,0.1,-2.1
12.3,96,-0.5,-2.9
12.3,96,-1.1,-3.6
12.3,96,-1.6,-4
12.3,96,-2.1,-4.2
12.3,96,-2.5,-4.2
12.3,96,-2.8,-4
12.3,96,-3,-3.7
12.4,96,-3,-3.3
12.4,96,-2.9,-2.8
12.4,96,-2.7,-2.2
12.4,96,-2.3,-1.6
12.4,96,-1.9,-1
12.4,96,-1.3,-0.4
12.4,96,-0.7,0.2
12.4,96,0.1,0.8
12.4,96,1,1.4
12.4,96,1.8,1.8
12.4,96,2.7,2
12.4,96,3.5,2.2
12.4,96,4.2,2.2
12.4,96,4.8,2.1
12.4,96,5.2,1.9
12.4,96,5.5,1.6
12.4,97,5.6,1.3
12.4,97,5.6,1
12.4,97,5.4,0.7
12.4,97,5,0.4
12.4,97,4.5,0.1
12.4,97,3.8,-0.2
12.4,97,3.1,-0.5
12.4,97,2.4,-0.8
12.4,97,1.6,-1
12.5,97,0.9,-1.1
12.5,97,0.2,-1.2
12.5,97,-0.5,-1.1
12.5,97,-1,-0.9
12.5,97,-1.5,-0.6
12.5,97,-1.9,-0.2
12.5,97,-2.2,0.3
12.5,97,-2.5,0.9
12.5,97,-2.6,1.4
12.5,97,-2.6,2
12.5,97,-2.5,2.6
12.5,97,-2.3,3.1
12.5,97,-1.9,3.6
12.5,97,-1.5,4
12.5,97,-0.9,4.2
12.5,97,-0.3,4.3
12.5,97,0.5,4.3
12.5,97,1.2,4
12.5,97,2,3.7
12.5,97,2.8,3.4
12.5,97,3.5,3.1
12.5,97,4,2.9
12.5,97,4.4,2.8
12.5,98,4.7,2.7
12.5,98,4.8,2.6
12.6,98,4.8,2.4
12.6,98,4.8,2
12.6,98,4.6,1.6
12.6,98,4.5,0.9
12.6,98,4.3,0.2
12.6,98,4.2,-0.5
12.6,98,4,-1.2
12.6,98,3.7,-1.8
12.6,98,3.4,-2.2
12.6,98,3,-2.6
12.6,98,2.7,-2.9
12.6,98,2.3,-3.2
12.6,98,1.9,-3.5
12.6,98,1.5,-3.8
12.6,98,1.1,-4.1
12.6,98,0.7,-4.3
12.6,98,0.3,-4.5
12.6,98,0,-4.6
12.6,98,-0.3,-4.6
12.6,98,-0.7,-4.4
12.6,98,-1.1,-4.1
12.6,98,-1.5,-3.7
12.6,98,-2.1,-3.3
12.6,98,-2.6,-2.8
12.6,98,-3.2,-2.4
12.7,98,-3.9,-2.1
12.7,98,-4.6,-2
12.7,98,-5.4,-1.9
12.7,98,-6.1,-1.8
12.7,98,-6.8,-1.9
12.7,99,-7.2,-1.9
12.7,99,-7.4,-1.8
12.7,99,-7.4,-1.6
12.7,99,-7.1,-1.3
12.7,99,-6.6,-0.9
12.7,99,-5.9,-0.6
12.7,99,-5,-0.3
12.7,99,-3.9,-0.1
12.7,99,-2.9,0
12.7,99,-1.8,-0.1
12.7,99,-0.8,-0.2
12.7,99,0.1,-0.5
12.7,99,0.7,-0.9
12.7,99,1.2,-1.2
12.7,99,1.4,-1.6
12.7,99,1.5,-2
12.7,99,1.3,-2.3
12.7,99,1.1,-2.4
12.7,99,0.8,-2.5
12.7,99,0.5,-2.4
12.8,99,0.2,-2.2
12.8,99,0,-1.9
12.8,99,-0.1,-1.4
12.8,99,-0.1,-1
12.8,99,0,-0.4
12.8,99,0.1,0.1
12.8,99,0.3,0.6
12.8,99,0.5,1.1
12.8,99,0.6,1.5
12.8,99,0.8,1.9
12.8,99,0.9,2.4
12.8,99,1,2.8
12.8,100,1,3.2
12.8,100,1,3.6
12.8,100,0.8,3.8
12.8,100,0.6,4.1
12.8,100,0.4,4.3
12.8,100,0,4.4
12.8,100,-0.3,4.5
12.8,100,-0.6,4.6
12.8,100,-0.8,4.6
12.8,100,-1,4.6
12.8,100,-1,4.5
12.8,100,-1,4.4
12.8,100,-0.9,4.3
12.9,100,-0.7,4.2
12.9,100,-0.5,4
12.9,100,-0.2,3.9
12.9,100,0.1,3.9
12.9,100,0.5,3.8
12.9,100,0.9,3.8
12.9,100,1.3,3.8
12.9,100,1.8,3.8
12.9,100,2.3,3.8
12.9,100,2.8,3.8
12.9,100,3.2,3.7
12.9,100,3.5,3.5
12.9,100,3.8,3.2
12.9,100,3.9,2.9
12.9,100,3.8,2.5
12.9,100,3.7,2.1
12.9,100,3.4,1.7
12.9,100,3,1.2
12.9,100,2.5,0.6
12.9,101,2,-0.1
12.9,101,1.4,-0.7
12.9,101,0.7,-1.4
12.9,101,0.1,-2
12.9,101,-0.5,-2.6
12.9,101,-1.2,-3.1
13,101,-1.9,-3.6
13,101,-2.6,-4
13,101,-3.4,-4.3
13,101,-4.1,-4.4
13,101,-4.7,-4.3
13,101,-5.1,-4.1
13,101,-5.3,-3.7
13,101,-5.5,-3.2
13,101,-5.5,-2.6
13,101,-5.4,-2.1
13,101,-5.2,-1.6
13,101,-5,-1.2
13,101,-4.8,-0.8
13,101,-4.5,-0.5
13,101,-4.2,-0.3
13,101,-3.8,-0.2
13,101,-3.4,-0.1
13,101,-3,-0.1
13,101,-2.7,-0.1
13,101,-2.3,-0.1
13,101,-1.9,-0.1
13,101,-1.6,-0.2
13,101,-1.2,-0.4
13,101,-0.9,-0.6
13,101,-0.5,-0.8
13.1,101,-0.2,-1
13.1,102,0.2,-1.2
13.1,102,0.6,-1.3
13.1,102,0.9,-1.4
13.1,102,1.2,-1.5
13.1,102,1.5,-1.5
13.1,102,1.7,-1.6
13.1,102,1.8,-1.8
13.1,102,1.9,-2.1
13.1,102,2,-2.5
13.1,102,2,-3
13.1,102,2.1,-3.6
13.1,102,2.2,-4.2
13.1,102,2.3,-4.8
13.1,102,2.5,-5.3
13.1,102,2.8,-5.7
13.1,102,3.1,-5.9
13.1,102,3.4,-6.1
13.1,102,3.7,-6.2
13.1,102,3.9,-6.2
13.1,102,4.1,-6.2
13.1,102,4.1,-6
13.1,102,4.1,-5.8
13.1,102,4.1,-5.5
13.1,102,4,-5.1
13.2,102,3.9,-4.6
13.2,102,3.8,-4
13.2,102,3.7,-3.5
13.2,102,3.5,-3
13.2,102,3.3,-2.6
13.2,102,2.9,-2.2
13.2,102,2.3,-2.1
13.2,102,1.6,-2
13.2,103,0.8,-2
13.2,103,0.1,-2.1
13.2,103,-0.6,-2.1
13.2,103,-1,-2
13.2,103,-1.2,-1.8
13.2,103,-1.1,-1.5
13.2,103,-0.9,-1.1
13.2,103,-0.5,-0.7
13.2,103,-0.1,-0.1
13.2,103,0.3,0.5
13.2,103,0.8,1.2
13.2,103,1.2,1.9
13.2,103,1.6,2.7
13.2,103,1.9,3.4
13.2,103,2.2,4.3
13.2,103,2.5,5.1
13.2,103,2.7,6
13.3,103,2.9,6.8
13.3,103,2.9,7.5
13.3,103,2.9,8.2
13.3,103,2.9,8.7
13.3,103,2.8,9.2
13.3,103,2.7,9.5
13.3,103,2.6,9.6
13.3,103,2.5,9.5
13.3,103,2.4,9.3
13.3,103,2.3,9
13.3,103,2.3,8.5
13.3,103,2.2,8
13.3,103,2,7.4
13.3,103,1.8,6.7
13.3,103,1.5,6
13.3,104,1.1,5.3
13.3,104,0.6,4.7
13.3,104,0.2,4.2
13.3,104,-0.2,3.7
13.3,104,-0.4,3.4
13.3,104,-0.6,3.3
13.3,104,-0.5,3.2
13.3,104,-0.4,3.2
13.3,104,-0.2,3.2
13.3,104,0,3.3
13.4,104,0.2,3.3
13.4,104,0.3,3.4
13.4,104,0.3,3.3
13.4,104,0.2,3.1
13.4,104,0,2.9
13.4,104,-0.3,2.6
13.4,104,-0.6,2.2
13.4,104,-0.9,1.7
13.4,104,-1.2,1.3
13.4,104,-1.5,0.8
13.4,104,-1.8,0.3
13.4,104,-2,-0.3
13.4,104,-2.3,-0.8
13.4,104,-2.5,-1.4
13.4,104,-2.6,-2
13.4,104,-2.7,-2.7
13.4,104,-2.8,-3.3
13.4,104,-2.7,-3.9
13.4,104,-2.7,-4.4
13.4,104,-2.5,-4.9
13.4,104,-2.4,-5.4
13.4,104,-2.3,-5.8
13.4,105,-2.3,-6.1
13.4,105,-2.4,-6.3
13.4,105,-2.5,-6.5
13.5,105,-2.7,-6.4
13.5,105,-2.9,-6.2
13.5,105,-3,-5.8
13.5,105,-3.1,-5.4
13.5,105,-3.1,-4.8
13.5,105,-3.1,-4.1
13.5,105,-3,-3.5
13.5,105,-2.8,-2.7
13.5,105,-2.6,-1.9
13.5,105,-2.3,-1.2
13.5,105,-1.9,-0.5
13.5,105,-1.6,0.2
13.5,105,-1.2,0.8
13.5,105,-0.8,1.2
13.5,105,-0.4,1.6
13.5,105,0,1.9
13.5,105,0.3,2.2
13.5,105,0.7,2.4
13.5,105,1.2,2.6
13.5,105,1.7,2.8
13.5,105,2.3,3
13.5,105,3,3.2
13.5,105,3.6,3.4
13.5,105,4.2,3.6
13.5,105,4.8,3.8
13.6,105,5.2,3.9
13.6,105,5.6,4
13.6,105,5.9,4
13.6,105,6.2,3.9
13.6,106,6.3,3.8
13.6,106,6.5,3.6
13.6,106,6.5,3.4
13.6,106,6.5,3.2
13.6,106,6.4,3
13.6,106,6.2,2.6
13.6,106,5.8,2.2
13.6,106,5.3,1.6
13.6,106,4.7,1
13.6,106,4,0.3
13.6,106,3.1,-0.4
13.6,106,2.3,-1
13.6,106,1.4,-1.4
13.6,106,0.6,-1.7
13.6,106,-0.1,-1.8
13.6,106,-0.7,-1.7
13.6,106,-1.2,-1.6
13.6,106,-1.6,-1.4
13.6,106,-1.9,-1.1
13.6,106,-2.3,-0.8
13.6,106,-2.7,-0.5
13.7,106,-3.2,-0.3
13.7,106,-3.8,-0.1
13.7,106,-4.3,0
13.7,106,-4.9,0.1
13.7,106,-5.5,0.2
13.7,106,-6.1,0.1
13.7,106,-6.6,0
13.7,106,-7.1,-0.2
13.7,106,-7.4,-0.4
13.7,106,-7.6,-0.6
13.7,106,-7.6,-0.7
13.7,107,-7.5,-0.9
13.7,107,-7.2,-0.9
13.7,107,-6.7,-0.9
13.7,107,-6.1,-0.8
13.7,107,-5.3,-0.6
13.7,107,-4.4,-0.4
13.7,107,-3.5,-0.1
13.7,107,-2.6,0.2
13.7,107,-1.8,0.5
13.7,107,-1.2,0.7
13.7,107,-0.7,0.7
13.7,107,-0.4,0.7
13.7,107,-0.2,0.5
13.7,107,-0.2,0.1
13.8,107,-0.3,-0.3
13.8,107,-0.5,-0.8
13.8,107,-0.9,-1.4
13.8,107,-1.3,-2
13.8,107,-1.9,-2.6
13.8,107,-2.6,-3.1
13.8,107,-3.4,-3.6
13.8,107,-4.2,-4
13.8,107,-5,-4.3
13.8,107,-5.8,-4.6
13.8,107,-6.5,-4.7
13.8,107,-7,-4.8
13.8,107,-7.4,-4.8
13.8,107,-7.6,-4.8
13.8,107,-7.7,-4.7
13.8,107,-7.6,-4.6
13.8,107,-7.3,-4.5
13.8,107,-6.9,-4.2
13.8,108,-6.5,-3.9
13.8,108,-5.9,-3.4
13.8,108,-5.2,-2.9
13.8,108,-4.6,-2.4
13.8,108,-4,-1.9
13.8,108,-3.4,-1.6
13.8,108,-2.9,-1.5
13.9,108,-2.5,-1.5
13.9,108,-2.1,-1.6
13.9,108,-1.9,-1.8
13.9,108,-1.6,-2
13.9,108,-1.4,-2.3
13.9,108,-1.3,-2.5
13.9,108,-1.1,-2.7
13.9,108,-0.9,-2.8
13.9,108,-0.7,-3
13.9,108,-0.6,-3.2
13.9,108,-0.4,-3.3
13.9,108,-0.2,-3.3
13.9,108,-0.1,-3.4
13.9,108,0,-3.4
13.9,108,0.1,-3.4
13.9,108,0.2,-3.4
13.9,108,0.3,-3.2
13.9,108,0.4,-3
13.9,108,0.5,-2.7
13.9,108,0.6,-2.4
13.9,108,0.7,-2.1
13.9,108,0.7,-1.9
13.9,108,0.7,-1.6
13.9,108,0.7,-1.4
13.9,108,0.8,-1.1
14,109,0.9,-0.9
14,109,1.1,-0.7
14,109,1.4,-0.5
14,109,1.7,-0.3
14,109,2.1,-0.1
14,109,2.5,0
14,109,2.9,0.2
14,109,3.2,0.4
14,109,3.4,0.6
14,109,3.6,0.7
14,109,3.6,0.9
14,109,3.5,1.1
14,109,3.4,1.3
14,109,3.2,1.5
14,109,2.8,1.7
14,109,2.4,1.9
14,109,1.9,2.1
14,109,1.4,2.3
14,109,0.9,2.4
14,109,0.4,2.4
14,109,-0.1,2.4
14,109,-0.6,2.3
14,109,-1,2
14,109,-1.6,1.6
14,109,-2.1,0.9
14.1,109,-2.7,0.2
14.1,109,-3.1,-0.5
14.1,109,-3.3,-1.2
14.1,109,-3.4,-1.7
14.1,109,-3.2,-2.2
14.1,109,-2.8,-2.5
14.1,109,-2.3,-2.7
14.1,110,-1.6,-2.9
14.1,110,-0.8,-2.9
14.1,110,0.1,-2.9
14.1,110,0.9,-2.8
14.1,110,1.6,-2.5
14.1,110,2.3,-2.2
14.1,110,2.9,-1.8
14.1,110,3.3,-1.4
14.1,110,3.7,-0.9
14.1,110,4,-0.4
14.1,110,4.3,0
14.1,110,4.6,0.4
14.1,110,4.9,0.8
14.1,110,5.3,1.1
14.1,110,5.6,1.4
14.1,110,5.9,1.7
14.1,110,6.1,1.9
14.1,110,6.2,2.1
14.2,110,6.2,2.2
14.2,110,6,2.4
14.2,110,5.7,2.6
14.2,110,5.4,2.7
14.2,110,5,2.8
14.2,110,4.7,2.8
14.2,110,4.5,2.9
14.2,110,4.4,3
14.2,110,4.4,3.2
14.2,110,4.4,3.4
14.2,110,4.5,3.8
14.2,110,4.7,4.2
14.2,110,4.8,4.7
14.2,110,5,5.3
14.2,111,5.2,5.9
14.2,111,5.5,6.5
14.2,111,5.7,7.2
14.2,111,5.8,7.9
14.2,111,5.9,8.5
14.2,111,5.8,9
14.2,111,5.7,9.3
14.2,111,5.6,9.6
14.2,111,5.4,9.6
14.2,111,5.3,9.6
14.2,111,5.3,9.5
14.3,111,5.3,9.4
14.3,111,5.4,9.1
14.3,111,5.5,8.8
14.3,111,5.6,8.5
14.3,111,5.7,8.1
14.3,111,5.7,7.8
14.3,111,5.6,7.3
14.3,111,5.4,6.9
14.3,111,5.2,6.3
14.3,111,4.9,5.6
14.3,111,4.5,4.8
14.3,111,4.2,4
14.3,111,3.8,3.2
14.3,111,3.4,2.4
14.3,111,3,1.7
14.3,111,2.6,1
14.3,111,2.3,0.5
14.3,111,2,0.1
14.3,111,1.8,-0.2
14.3,111,1.5,-0.4
14.3,111,1.2,-0.5
14.3,112,0.9,-0.6
14.3,112,0.6,-0.8
14.3,112,0.3,-1
14.3,112,-0.1,-1.3
14.4,112,-0.5,-1.7
14.4,112,-1.1,-2
14.4,112,-1.6,-2.4
14.4,112,-2.2,-2.7
14.4,112,-2.8,-3
14.4,112,-3.3,-3.1
14.4,112,-3.7,-3.1
14.4,112,-3.9,-3
14.4,112,-4,-2.6
14.4,112,-4,-2.2
14.4,112,-3.8,-1.6
14.4,112,-3.6,-1
14.4,112,-3.2,-0.5
14.4,112,-2.8,0
14.4,112,-2.3,0.3
14.4,112,-1.8,0.4
14.4,112,-1.1,0.4
14.4,112,-0.4,0.2
14.4,112,0.2,-0.2
14.4,112,0.8,-0.8
14.4,112,1.3,-1.5
14.4,112,1.6,-2.2
14.4,112,1.9,-2.9
14.4,112,2.1,-3.4
14.4,112,2.4,-3.9
14.5,112,2.5,-4.3
14.5,112,2.6,-4.6
14.5,112,2.6,-4.7
14.5,113,2.6,-4.7
14.5,113,2.6,-4.6
14.5,113,2.5,-4.4
14.5,113,2.3,-4.1
14.5,113,2.1,-3.7
14.5,113,1.7,-3.3
14.5,113,1.3,-3
14.5,113,0.9,-2.6
14.5,113,0.5,-2.3
14.5,113,0,-2.1
14.5,113,-0.4,-2
14.5,113,-0.8,-1.8
14.5,113,-1.2,-1.8
14.5,113,-1.5,-1.7
14.5,113,-1.8,-1.7
14.5,113,-2.1,-1.8
14.5,113,-2.4,-1.9
14.5,113,-2.7,-2
14.5,113,-3,-2.1
14.5,113,-3.3,-2.3
14.5,113,-3.6,-2.5
14.5,113,-3.9,-2.6
14.6,113,-4.2,-2.8
14.6,113,-4.5,-2.8
14.6,113,-4.8,-2.8
14.6,113,-5.1,-2.8
14.6,113,-5.2,-2.7
14.6,113,-5.3,-2.5
14.6,113,-5.2,-2.2
14.6,113,-5,-1.8
14.6,113,-4.7,-1.4
14.6,113,-4.3,-0.9
14.6,114,-3.9,-0.5
14.6,114,-3.5,-0.1
14.6,114,-3,0.2
14.6,114,-2.6,0.4
14.6,114,-2.3,0.5
14.6,114,-2,0.5
14.6,114,-1.8,0.5
14.6,114,-1.6,0.5
14.6,114,-1.4,0.4
14.6,114,-1.3,0.4
14.6,114,-1.2,0.2
14.6,114,-1.3,0
14.6,114,-1.5,-0.2
14.6,114,-1.9,-0.4
14.6,114,-2.4,-0.6
14.7,114,-2.9,-0.8
14.7,114,-3.5,-0.9
14.7,114,-4.1,-1
14.7,114,-4.6,-1.1
14.7,114,-5.1,-1.2
14.7,114,-5.4,-1.4
14.7,114,-5.7,-1.7
14.7,114,-5.9,-1.9
14.7,114,-6,-2.2
14.7,114,-6,-2.5
14.7,114,-6,-2.7
14.7,114,-5.8,-2.8
14.7,114,-5.6,-2.9
14.7,114,-5.3,-2.9
14.7,114,-5,-2.8
14.7,114,-4.6,-2.6
14.7,114,-4.2,-2.3
14.7,115,-3.8,-2
14.7,115,-3.3,-1.6
14.7,115,-2.9,-1.2
14.7,115,-2.5,-0.7
14.7,115,-2.1,-0.2
14.7,115,-1.7,0.3
14.7,115,-1.3,0.8
14.7,115,-0.9,1.3
14.8,115,-0.5,1.8
14.8,115,-0.1,2.2
14.8,115,0.3,2.6
14.8,115,0.7,2.9
14.8,115,1,3.1
14.8,115,1.3,3.1
14.8,115,1.5,3.1
14.8,115,1.6,3
14.8,115,1.6,2.7
14.8,115,1.4,2.5
14.8,115,1.1,2.2
14.8,115,0.8,1.8
14.8,115,0.4,1.5
14.8,115,0,1.1
14.8,115,-0.4,0.7
14.8,115,-0.7,0.2
14.8,115,-1,-0.2
14.8,115,-1.3,-0.5
14.8,115,-1.6,-0.8
14.8,115,-1.9,-1
14.8,115,-2.3,-1
14.8,115,-2.8,-1
14.8,115,-3.3,-1
14.8,115,-3.8,-0.8
14.8,116,-4.3,-0.7
14.9,116,-4.6,-0.4
14.9,116,-4.7,-0.1
14.9,116,-4.6,0.2
14.9,116,-4.4,0.6
14.9,116,-4.1,0.8
14.9,116,-3.6,0.9
14.9,116,-3,0.9
14.9,116,-2.4,0.7
14.9,116,-1.7,0.4
14.9,116,-1,0.1
14.9,116,-0.3,-0.4
14.9,116,0.2,-0.8
14.9,116,0.7,-1.3
14.9,116,1,-1.7
14.9,116,1.1,-2.1
14.9,116,1.1,-2.4
14.9,116,0.9,-2.8
14.9,116,0.3,-3.2
14.9,116,-0.6,-3.9
14.9,116,-1.9,-4.7
14.9,116,-3.6,-5.8
14.9,116,-5.3,-7
14.9,116,-7.2,-8.5
14.9,116,-9,-10.3
14.9,116,-10.9,-12.4
15,116,-12.5,-15.1
15,116,-13.7,-18.3
15,116,-14.5,-22.3
15,116,-15.1,-27.2
15,116,-15.5,-33.5
15,116,-16.3,-41.3
15,117,-17.3,-50.6
15,117,-18.7,-61.6
15,117,-20.4,-74.1
15,117,-22.4,-88
15,117,-24.6,-103
15,117,-27.1,-118.7
15,117,-29.9,-134.6
15,117,-32.8,-150.1
15,117,-35.7,-164.7
15,117,-38.6,-177.7
15,117,-41.3,-188.7
15,117,-43.8,-197.3
15,117,-46,-203.4
15,117,-47.8,-206.7
15,117,-49.2,-207.1
15,117,-50,-204.7
15,117,-50.2,-199.6
15,117,-49.9,-192.1
15,117,-48.8,-182.5
15.1,117,-47.2,-171
15.1,117,-45.1,-157.9
15.1,117,-42.5,-143.8
15.1,117,-39.5,-128.8
15.1,117,-36.3,-113.4
15.1,117,-32.7,-97.7
15.1,117,-28.8,-82
15.1,117,-24.6,-66.4
15.1,117,-20.1,-51
15.1,117,-15.3,-36
15.1,117,-10.4,-21.5
15.1,117,-5.3,-7.7
15.1,117,-0.1,5.6
15.1,118,5.2,18.2
15.1,118,10.5,30.2
15.1,118,15.8,41.5
15.1,118,20.9,52.2
15.1,118,25.7,62.2
15.1,118,30.1,71.5
15.1,118,34.1,80.2
15.1,118,37.9,88.4
15.1,118,41.3,96.2
15.1,118,44.5,103.6
15.1,118,47.5,110.7
15.1,118,50.5,117.6
15.2,118,53.4,124.3
15.2,118,56.3,130.8
15.2,118,59.1,137.1
15.2,118,61.8,143.4
15.2,118,64.4,149.6
15.2,118,66.9,155.8
15.2,118,69.3,162.1
15.2,118,71.7,168.5
15.2,118,74.1,175.2
15.2,118,76.6,182.1
15.2,118,79.1,189.3
15.2,118,81.5,196.5
15.2,118,83.7,203.7
15.2,118,85.5,210.7
15.2,118,86.9,217.5
15.2,118,87.7,224
15.2,118,88,230.2
15.2,118,87.9,236
15.2,118,87.4,241.4
15.2,118,86.5,246.2
15.2,119,85.1,250.4
15.2,119,83.3,253.9
15.2,119,81.2,256.8
15.2,119,78.6,258.9
15.2,119,75.8,260.3
15.3,119,72.6,261.1
15.3,119,69.2,261.1
15.3,119,65.5,260.5
15.3,119,61.6,259.3
15.3,119,57.5,257.4
15.3,119,53.1,254.8
15.3,119,48.7,251.7
15.3,119,44.3,247.9
15.3,119,40.1,243.7
15.3,119,36.1,238.8
15.3,119,32.5,233.4
15.3,119,29.4,227.4
15.3,119,26.6,220.9
15.3,119,24.2,213.7
15.3,119,22.2,205.9
15.3,119,20.5,197.5
15.3,119,19.2,188.5
15.3,119,18,179
15.3,119,17,168.9
15.3,119,16.2,158.5
15.3,119,15.3,147.6
15.3,119,14.4,136.5
15.3,119,13.4,125.1
15.3,119,12.3,113.5
15.3,119,10.9,101.8
15.4,119,9.5,90.1
15.4,119,7.8,78.5
15.4,120,6.1,67
15.4,120,4.2,55.8
15.4,120,2.3,44.8
15.4,120,0.5,34.2
15.4,120,-1.4,24
15.4,120,-3.2,14.1
15.4,120,-5,4.7
15.4,120,-6.7,-4.3
15.4,120,-8.5,-13
15.4,120,-10.3,-21.2
15.4,120,-12,-29.2
15.4,120,-13.8,-36.9
15.4,120,-15.7,-44.4
15.4,120,-17.6,-51.6
15.4,120,-19.5,-58.8
15.4,120,-21.4,-65.8
15.4,120,-23.2,-72.7
15.4,120,-25,-79.5
15.4,120,-26.7,-86.3
15.4,120,-28.2,-93
15.4,120,-29.5,-99.7
15.4,120,-30.7,-106.5
15.4,120,-31.8,-113.2
15.5,120,-32.8,-119.8
15.5,120,-33.8,-126.2
15.5,120,-34.9,-132.4
15.5,120,-36,-138.3
15.5,120,-37.3,-143.9
15.5,120,-38.6,-149.1
15.5,120,-40.1,-154
15.5,120,-41.6,-158.5
15.5,120,-43.2,-162.7
15.5,121,-44.7,-166.7
15.5,121,-46.1,-170.4
15.5,121,-47.5,-173.9
15.5,121,-48.7,-177.1
15.5,121,-49.8,-180.1
15.5,121,-50.8,-182.8
15.5,121,-51.7,-185.2
15.5,121,-52.5,-187.3
15.5,121,-53.1,-189.1
15.5,121,-53.7,-190.5
15.5,121,-54.2,-191.6
15.5,121,-54.5,-192.3
15.5,121,-54.8,-192.7
15.5,121,-54.9,-192.6
15.5,121,-54.8,-192.3
15.5,121,-54.6,-191.5
15.6,121,-54.1,-190.5
15.6,121,-53.5,-189.2
15.6,121,-52.7,-187.7
15.6,121,-51.7,-186
15.6,121,-50.5,-184.2
15.6,121,-49.1,-182.4
15.6,121,-47.7,-180.6
15.6,121,-46.2,-178.7
15.6,121,-44.7,-176.8
15.6,121,-43.1,-174.8
15.6,121,-41.7,-172.8
15.6,121,-40.3,-170.7
15.6,121,-39,-168.7
15.6,121,-38,-166.7
15.6,121,-37.1,-164.7
15.6,121,-36.5,-162.8
15.6,122,-36,-161
15.6,122,-35.7,-159.2
15.6,122,-35.5,-157.3
15.6,122,-35.4,-155.3
15.6,122,-35.2,-153.2
15.6,122,-35.1,-150.9
15.6,122,-34.9,-148.4
15.6,122,-34.7,-145.7
15.6,122,-34.5,-142.8
15.7,122,-34.3,-139.7
15.7,122,-34,-136.4
15.7,122,-33.7,-133
15.7,122,-33.2,-129.4
15.7,122,-32.7,-125.7
15.7,122,-32,-121.9
15.7,122,-31.2,-118
15.7,122,-30.3,-114
15.7,122,-29.2,-110
15.7,122,-28,-106
15.7,122,-26.7,-102
15.7,122,-25.3,-98.1
15.7,122,-23.9,-94.2
15.7,122,-22.5,-90.4
15.7,122,-21.1,-86.5
15.7,122,-19.6,-82.6
15.7,122,-18.2,-78.7
15.7,122,-16.7,-74.7
15.7,122,-15.3,-70.7
15.7,122,-13.8,-66.7
15.7,122,-12.4,-62.7
15.7,122,-11.1,-58.7
15.7,122,-9.9,-54.7
15.7,123,-8.8,-50.7
15.7,123,-7.8,-46.8
15.8,123,-7,-42.9
15.8,123,-6.2,-39
15.8,123,-5.4,-35.2
15.8,123,-4.7,-31.3
15.8,123,-4.1,-27.6
15.8,123,-3.4,-24
15.8,123,-2.8,-20.7
15.8,123,-2.2,-17.5
15.8,123,-1.6,-14.5
15.8,123,-1,-11.6
15.8,123,-0.3,-8.9
15.8,123,0.5,-6.2
15.8,123,1.3,-3.5
15.8,123,2.1,-0.7
15.8,123,3,2.3
15.8,123,3.8,5.4
15.8,123,4.7,8.5
15.8,123,5.5,11.7
15.8,123,6.3,14.9
15.8,123,6.9,17.9
15.8,123,7.4,20.6
15.8,123,7.6,23.1
15.8,123,7.5,25.3
15.8,123,7.4,27.3
15.8,123,7.2,29.1
15.9,123,7,30.7
15.9,123,7,32.2
15.9,123,7.3,33.7
15.9,123,7.8,35.2
15.9,123,8.6,36.8
15.9,124,9.7,38.4
15.9,124,10.9,40.1
15.9,124,12.3,41.9
15.9,124,13.7,43.9
15.9,124,15.2,46.1
15.9,124,16.6,48.3
15.9,124,18,50.7
15.9,124,19.3,53.2
15.9,124,20.3,55.6
15.9,124,21.2,58
15.9,124,21.8,60.4
15.9,124,22.1,62.7
15.9,124,22.3,64.8
15.9,124,22.3,66.9
15.9,124,22.3,68.8
15.9,124,22.1,70.6
15.9,124,22,72.4
15.9,124,21.9,74
15.9,124,21.8,75.6
15.9,124,21.9,77.1
16,124,22,78.4
16,124,22.1,79.5
16,124,22.3,80.5
16,124,22.4,81.3
16,124,22.5,82
16,124,22.5,82.4
16,124,22.4,82.5
16,124,22.1,82.5
16,124,21.7,82.2
16,124,21.2,81.9
16,124,20.7,81.3
16,124,20.2,80.7
16,125,19.8,80.1
16,125,19.4,79.5
16,125,19,78.8
16,125,18.7,78.2
16,125,18.5,77.6
16,125,18.3,77
16,125,18.1,76.3
16,125,18,75.7
16,125,17.9,75.1
16,125,17.8,74.6
16,125,17.9,74.1
16,125,18,73.6
16,125,18.2,73.2
16.1,125,18.4,72.8
16.1,125,18.7,72.4
16.1,125,19,72
16.1,125,19.3,71.5
16.1,125,19.5,71
16.1,125,19.7,70.5
16.1,125,19.9,69.9
16.1,125,20,69.3
16.1,125,20,68.6
16.1,125,19.9,67.8
16.1,125,19.7,67
16.1,125,19.4,66.2
16.1,125,18.9,65.4
16.1,125,18.4,64.5
16.1,125,17.7,63.6
16.1,125,16.9,62.7
16.1,125,16.1,61.9
16.1,125,15.2,61
16.1,125,14.4,60.2
16.1,126,13.6,59.3
16.1,126,12.8,58.5
16.1,126,12.1,57.6
16.1,126,11.5,56.6
16.1,126,10.9,55.6
16.1,126,10.5,54.5
16.2,126,10.2,53.4
16.2,126,10,52.2
16.2,126,9.8,51
16.2,126,9.6,49.8
16.2,126,9.5,48.6
16.2,126,9.3,47.4
16.2,126,9.2,46.4
16.2,126,9.1,45.4
16.2,126,9.1,44.6
16.2,126,9.1,43.9
16.2,126,9.2,43.2
16.2,126,9.4,42.6
16.2,126,9.6,41.9
16.2,126,9.9,41.1
16.2,126,10.2,40.2
16.2,126,10.6,39.3
16.2,126,11.1,38.2
16.2,126,11.5,37
16.2,126,12,35.7
16.2,126,12.3,34.2
16.2,126,12.6,32.7
16.2,126,12.7,31.1
16.2,126,12.7,29.4
16.2,126,12.4,27.6
16.2,126,11.9,25.8
16.3,126,11.2,23.9
16.3,127,10.2,22.1
16.3,127,9.1,20.3
16.3,127,8,18.6
16.3,127,6.8,17
16.3,127,5.6,15.6
16.3,127,4.4,14.3
16.3,127,3.3,13.2
16.3,127,2.3,12.3
16.3,127,1.4,11.5
16.3,127,0.6,10.9
16.3,127,-0.1,10.4
16.3,127,-0.7,10.1
16.3,127,-1.1,9.9
16.3,127,-1.5,9.7
16.3,127,-1.8,9.5
16.3,127,-2.1,9.3
16.3,127,-2.4,9
16.3,127,-2.6,8.6
16.3,127,-2.9,8
16.3,127,-3.3,7.2
16.3,127,-3.7,6.3
16.3,127,-4.1,5.1
16.3,127,-4.4,3.9
16.3,127,-4.7,2.6
16.4,127,-4.8,1.2
16.4,127,-4.7,-0.2
16.4,127,-4.6,-1.5
16.4,127,-4.3,-2.7
16.4,127,-4,-3.9
16.4,127,-3.5,-4.9
16.4,127,-3.1,-5.8
16.4,127,-2.7,-6.6
16.4,128,-2.3,-7.2
16.4,128,-2,-7.8
16.4,128,-1.7,-8.2
16.4,128,-1.6,-8.6
16.4,128,-1.6,-8.8
16.4,128,-1.6,-9
16.4,128,-1.7,-9.2
16.4,128,-1.8,-9.4
16.4,128,-2,-9.5
16.4,128,-2.1,-9.6
16.4,128,-2.2,-9.8
16.4,128,-2.4,-10
16.4,128,-2.5,-10.2
16.4,128,-2.6,-10.5
16.4,128,-2.6,-10.9
16.4,128,-2.5,-11.4
16.4,128,-2.5,-12
16.5,128,-2.4,-12.6
16.5,128,-2.5,-13.2
16.5,128,-2.6,-13.8
16.5,128,-2.8,-14.4
16.5,128,-3.1,-15
16.5,128,-3.4,-15.6
16.5,128,-3.7,-16.2
16.5,128,-4.1,-16.9
16.5,128,-4.5,-17.5
16.5,128,-4.9,-18
16.5,128,-5.3,-18.5
16.5,128,-5.7,-18.8
16.5,128,-6,-19.1
16.5,128,-6.4,-19.4
16.5,128,-6.7,-19.6
16.5,129,-7,-19.9
16.5,129,-7.2,-20.1
16.5,129,-7.4,-20.2
16.5,129,-7.6,-20.4
16.5,129,-7.7,-20.5
16.5,129,-7.7,-20.6
16.5,129,-7.7,-20.6
16.5,129,-7.7,-20.6
16.5,129,-7.7,-20.5
16.5,129,-7.7,-20.6
16.6,129,-7.7,-20.7
16.6,129,-7.8,-20.8
16.6,129,-7.8,-21
16.6,129,-7.9,-21.3
16.6,129,-8,-21.5
16.6,129,-8.1,-21.8
16.6,129,-8.2,-22
16.6,129,-8.3,-22.2
16.6,129,-8.3,-22.4
16.6,129,-8.4,-22.6
16.6,129,-8.4,-22.8
16.6,129,-8.4,-22.9
16.6,129,-8.3,-22.9
16.6,129,-8.2,-22.9
16.6,129,-7.9,-22.7
16.6,129,-7.6,-22.5
16.6,129,-7.2,-22.3
16.6,129,-6.8,-22
16.6,129,-6.4,-21.6
16.6,129,-6,-21.3
16.6,129,-5.7,-21
16.6,129,-5.5,-20.6
16.6,130,-5.2,-20.3
16.6,130,-4.9,-20
16.6,130,-4.6,-19.7
16.7,130,-4.2,-19.4
16.7,130,-3.6,-19
16.7,130,-3,-18.5
16.7,130,-2.5,-18.1
16.7,130,-1.9,-17.8
16.7,130,-1.6,-17.4
16.7,130,-1.4,-17.1
16.7,130,-1.3,-16.9
16.7,130,-1.5,-16.8
16.7,130,-1.8,-16.8
16.7,130,-2.3,-16.9
16.7,130,-2.8,-17.1
16.7,130,-3.3,-17.2
16.7,130,-3.7,-17.3
16.7,130,-4,-17.2
16.7,130,-4.1,-17
16.7,130,-3.9,-16.6
16.7,130,-3.6,-16.1
16.7,130,-3.1,-15.4
16.7,130,-2.4,-14.7
16.7,130,-1.6,-13.9
16.7,130,-0.7,-13
16.7,130,0.2,-12
16.7,130,1.1,-11.1
16.7,130,1.8,-10.1
16.8,130,2.3,-9.2
16.8,130,2.7,-8.3
16.8,130,2.8,-7.4
16.8,130,2.9,-6.5
16.8,131,2.8,-5.6
16.8,131,2.8,-4.8
16.8,131,2.7,-3.9
16.8,131,2.6,-3.2
16.8,131,2.6,-2.6
16.8,131,2.5,-2.1
16.8,131,2.5,-1.7
16.8,131,2.4,-1.4
16.8,131,2.3,-1.2
16.8,131,2.1,-1.1
16.8,131,1.9,-1.1
16.8,131,1.7,-1.1
16.8,131,1.4,-1.3
16.8,131,1,-1.5
16.8,131,0.6,-1.7
16.8,131,0.3,-2
16.8,131,0,-2.2
16.8,131,-0.3,-2.5
16.8,131,-0.6,-2.6
16.8,131,-0.9,-2.7
16.8,131,-1.1,-2.6
16.9,131,-1.3,-2.5
16.9,131,-1.5,-2.2
16.9,131,-1.6,-1.9
16.9,131,-1.6,-1.5
16.9,131,-1.7,-1.1
16.9,131,-1.8,-0.7
16.9,131,-1.9,-0.4
16.9,131,-2,0
16.9,131,-2.1,0.2
16.9,131,-2.2,0.5
16.9,131,-2.1,0.6
16.9,132,-2.1,0.7
16.9,132,-2,0.8
16.9,132,-1.8,0.8
16.9,132,-1.6,0.8
16.9,132,-1.4,0.7
16.9,132,-1.1,0.6
16.9,132,-0.8,0.6
16.9,132,-0.5,0.6
16.9,132,-0.1,0.6
16.9,132,0.2,0.8
16.9,132,0.6,1.1
16.9,132,1.1,1.5
16.9,132,1.5,2
16.9,132,1.9,2.5
17,132,2.2,3.1
17,132,2.5,3.7
17,132,2.7,4.2
17,132,2.8,4.6
17,132,2.8,5
17,132,2.7,5.2
17,132,2.5,5.4
17,132,2.2,5.4
17,132,1.9,5.3
17,132,1.6,5.2
17,132,1.3,5
17,132,1,4.7
17,132,0.9,4.5
17,132,0.7,4.2
17,132,0.6,4
17,132,0.4,3.8
17,132,0.3,3.5
17,132,0.1,3.3
17,133,-0.2,3
17,133,-0.4,2.7
17,133,-0.7,2.4
17,133,-0.8,2.2
17,133,-0.8,2.1
17,133,-0.6,2
17,133,-0.2,2
17.1,133,0.2,2.2
17.1,133,0.6,2.3
17.1,133,1,2.4
17.1,133,1.3,2.5
17.1,133,1.4,2.6
17.1,133,1.4,2.5
17.1,133,1.3,2.4
17.1,133,1.1,2.2
17.1,133,0.9,1.9
17.1,133,0.6,1.6
17.1,133,0.3,1.2
17.1,133,0,0.9
17.1,133,-0.3,0.5
17.1,133,-0.7,0.1
17.1,133,-1.1,-0.2
17.1,133,-1.5,-0.5
17.1,133,-1.8,-0.8
17.1,133,-2,-1
17.1,133,-2.1,-1.2
17.1,133,-2.1,-1.3
17.1,133,-1.9,-1.4
17.1,133,-1.6,-1.3
17.1,133,-1.2,-1.2
17.1,133,-0.7,-0.9
17.1,133,-0.1,-0.6
17.2,134,0.4,-0.2
17.2,134,0.8,0.1
17.2,134,1.1,0.2
17.2,134,1.3,0.2
17.2,134,1.3,0.2
17.2,134,1.1,0
17.2,134,0.7,-0.2
17.2,134,0.3,-0.4
17.2,134,-0.4,-0.7
17.2,134,-1.1,-1
17.2,134,-1.9,-1.4
17.2,134,-2.6,-1.8
17.2,134,-3.4,-2.2
17.2,134,-4,-2.5
17.2,134,-4.5,-2.7
17.2,134,-4.9,-2.8
17.2,134,-5,-2.8
17.2,134,-4.9,-2.7
17.2,134,-4.6,-2.5
17.2,134,-4.1,-2.3
17.2,134,-3.5,-2.1
17.2,134,-2.8,-1.9
17.2,134,-2,-1.7
17.2,134,-1.3,-1.6
17.2,134,-0.6,-1.6
17.3,134,-0.1,-1.7
17.3,134,0.2,-1.8
17.3,134,0.4,-2.1
17.3,134,0.4,-2.4
17.3,134,0.3,-2.8
17.3,134,0.2,-3.2
17.3,134,-0.1,-3.6
17.3,135,-0.2,-3.9
17.3,135,-0.4,-4.2
17.3,135,-0.4,-4.4
17.3,135,-0.3,-4.4
17.3,135,-0.1,-4.4
17.3,135,0.3,-4.3
17.3,135,0.8,-4.1
17.3,135,1.3,-3.9
17.3,135,1.9,-3.6
17.3,135,2.5,-3.3
17.3,135,3.1,-3
17.3,135,3.6,-2.7
17.3,135,4.1,-2.3
17.3,135,4.5,-2
17.3,135,4.8,-1.7
17.3,135,5,-1.4
17.3,135,4.9,-1.1
17.3,135,4.7,-0.8
17.4,135,4.3,-0.6
17.4,135,3.7,-0.3
17.4,135,3.2,-0.1
17.4,135,2.6,0.2
17.4,135,2.1,0.6
17.4,135,1.6,1
17.4,135,1.2,1.4
17.4,135,0.9,1.8
17.4,135,0.8,2.1
17.4,135,0.7,2.4
17.4,135,0.7,2.5
17.4,135,0.7,2.6
17.4,135,0.9,2.7
17.4,135,1,2.7
17.4,136,1.2,2.7
17.4,136,1.4,2.7
17.4,136,1.5,2.6
17.4,136,1.7,2.4
17.4,136,1.8,2.2
17.4,136,1.8,1.8
17.4,136,1.6,1.2
17.4,136,1.4,0.6
17.4,136,1,-0.2
17.4,136,0.6,-1
17.4,136,0.1,-1.9
17.5,136,-0.3,-2.7
17.5,136,-0.7,-3.5
17.5,136,-1,-4.2
17.5,136,-1.2,-4.9
17.5,136,-1.5,-5.4
17.5,136,-1.7,-5.8
17.5,136,-1.9,-6
17.5,136,-2.1,-6.1
17.5,136,-2.3,-6.1
17.5,136,-2.6,-6
17.5,136,-3,-5.9
17.5,136,-3.4,-5.7
17.5,136,-4,-5.5
17.5,136,-4.6,-5.2
17.5,136,-5.1,-4.9
17.5,136,-5.6,-4.5
17.5,136,-5.9,-4
17.5,136,-6,-3.4
17.5,136,-5.9,-2.8
17.5,136,-5.7,-2.2
17.5,136,-5.3,-1.5
17.5,137,-4.9,-0.7
17.5,137,-4.4,0
17.5,137,-3.9,0.7
17.5,137,-3.3,1.5
17.6,137,-2.8,2.2
17.6,137,-2.2,2.9
17.6,137,-1.6,3.6
17.6,137,-1.1,4.3
17.6,137,-0.6,5
17.6,137,-0.1,5.7
17.6,137,0.4,6.3
17.6,137,0.8,6.8
17.6,137,1.1,7.2
17.6,137,1.4,7.6
17.6,137,1.7,7.8
17.6,137,1.8,7.8
17.6,137,2,7.8
17.6,137,2.1,7.7
17.6,137,2.2,7.6
17.6,137,2.4,7.3
17.6,137,2.5,7
17.6,137,2.5,6.6
17.6,137,2.6,6.2
17.6,137,2.6,5.8
17.6,137,2.5,5.3
17.6,137,2.3,4.9
17.6,137,2.2,4.5
17.6,137,2.1,4.2
17.6,137,2.1,4
17.7,137,2.1,3.9
17.7,137,2.1,3.7
17.7,137,2.3,3.6
17.7,138,2.4,3.5
17.7,138,2.7,3.4
17.7,138,2.9,3.2
17.7,138,3.1,3
17.7,138,3.3,2.8
17.7,138,3.4,2.5
17.7,138,3.5,2.1
17.7,138,3.5,1.6
17.7,138,3.4,1.1
17.7,138,3.2,0.5
17.7,138,2.8,-0.2
17.7,138,2.2,-0.8
17.7,138,1.7,-1.5
17.7,138,1.2,-2.1
17.7,138,0.7,-2.5
17.7,138,0.4,-2.9
17.7,138,0.2,-3
17.7,138,0.2,-3
17.7,138,0.3,-2.9
17.7,138,0.4,-2.6
17.7,138,0.6,-2.2
17.7,138,0.7,-1.6
17.8,138,0.8,-1.1
17.8,138,0.8,-0.5
17.8,138,0.7,0.1
17.8,138,0.5,0.7
17.8,138,0.2,1.2
17.8,138,0,1.7
17.8,138,-0.3,2.2
17.8,138,-0.5,2.6
17.8,138,-0.8,3
17.8,138,-0.9,3.3
17.8,139,-1.1,3.4
17.8,139,-1.3,3.5
17.8,139,-1.4,3.4
17.8,139,-1.5,3.3
17.8,139,-1.6,3
17.8,139,-1.6,2.7
17.8,139,-1.5,2.4
17.8,139,-1.3,2
17.8,139,-1,1.5
17.8,139,-0.6,1
17.8,139,0,0.5
17.8,139,0.7,-0.1
17.8,139,1.5,-0.6
17.8,139,2.3,-1
17.8,139,3,-1.4
17.9,139,3.6,-1.6
17.9,139,4.2,-1.6
17.9,139,4.5,-1.6
17.9,139,4.8,-1.6
17.9,139,4.9,-1.4
17.9,139,4.9,-1.3
17.9,139,4.9,-1.1
17.9,139,4.8,-0.8
17.9,139,4.7,-0.5
17.9,139,4.5,-0.2
17.9,139,4.4,0.2
17.9,139,4.3,0.7
17.9,139,4.3,1.2
17.9,139,4.4,1.6
17.9,139,4.6,2
17.9,139,4.7,2.3
17.9,139,4.7,2.6
17.9,140,4.6,2.7
17.9,140,4.4,2.8
17.9,140,4.1,2.8
17.9,140,3.6,2.7
17.9,140,3,2.5
17.9,140,2.3,2.4
17.9,140,1.5,2.1
17.9,140,0.7,1.9
18,140,0,1.7
18,140,-0.6,1.6
18,140,-1.2,1.4
18,140,-1.8,1.1
18,140,-2.4,0.8
18,140,-3.1,0.3
18,140,-3.7,-0.2
18,140,-4.4,-0.8
18,140,-5.1,-1.4
18,140,-5.7,-2
18,140,-6.3,-2.6
18,140,-6.9,-3
18,140,-7.3,-3.4
18,140,-7.7,-3.7
18,140,-8,-3.8
18,140,-8.1,-3.7
18,140,-8.2,-3.5
18,140,-8.2,-3.2
18,140,-8.1,-2.6
18,140,-8,-1.9
18,140,-7.9,-1.2
18,140,-7.7,-0.5
18,140,-7.4,0.2
18,140,-7,0.6
18,141,-6.5,0.9
18.1,141,-5.9,1
18.1,141,-5.1,0.9
18.1,141,-4.3,0.7
18.1,141,-3.4,0.4
18.1,141,-2.5,0
18.1,141,-1.7,-0.5
18.1,141,-1.1,-1.1
18.1,141,-0.7,-1.7
18.1,141,-0.5,-2.4
18.1,141,-0.4,-3.2
18.1,141,-0.5,-4.1
18.1,141,-0.8,-5
18.1,141,-1.1,-5.8
18.1,141,-1.4,-6.6
18.1,141,-1.8,-7.2
18.1,141,-2.1,-7.7
18.1,141,-2.3,-8.1
18.1,141,-2.4,-8.4
18.1,141,-2.3,-8.6
18.1,141,-2.1,-8.5
18.1,141,-1.8,-8.4
18.1,141,-1.3,-8
18.1,141,-0.7,-7.5
18.1,141,0,-6.9
18.1,141,0.8,-6.1
18.2,141,1.6,-5.3
18.2,141,2.3,-4.5
18.2,141,3,-3.8
18.2,141,3.5,-3.2
18.2,141,3.8,-2.6
18.2,141,4,-2.2
18.2,142,4.1,-1.9
18.2,142,4,-1.7
18.2,142,3.7,-1.6
18.2,142,3.4,-1.6
18.2,142,2.9,-1.7
18.2,142,2.4,-1.9
18.2,142,1.9,-2
18.2,142,1.4,-2.1
18.2,142,1,-2.2
18.2,142,0.5,-2.3
18.2,142,0.2,-2.4
18.2,142,-0.2,-2.4
18.2,142,-0.5,-2.5
18.2,142,-0.8,-2.5
18.2,142,-1.1,-2.5
18.2,142,-1.5,-2.5
18.2,142,-1.8,-2.5
18.2,142,-2.1,-2.5
18.2,142,-2.4,-2.6
18.3,142,-2.6,-2.6
18.3,142,-2.8,-2.7
18.3,142,-2.9,-2.7
18.3,142,-2.9,-2.7
18.3,142,-2.8,-2.5
18.3,142,-2.5,-2.4
18.3,142,-2.2,-2.1
18.3,142,-1.7,-1.8
18.3,142,-1.2,-1.5
18.3,142,-0.7,-1.2
18.3,142,-0.2,-0.8
18.3,142,0.3,-0.5
18.3,142,0.6,-0.3
18.3,143,0.8,-0.1
18.3,143,1,0
18.3,143,1.2,0
18.3,143,1.3,0
18.3,143,1.5,0
18.3,143,1.6,-0.1
18.3,143,1.8,-0.2
18.3,143,1.9,-0.3
18.3,143,1.9,-0.5
18.3,143,1.7,-0.8
18.3,143,1.4,-1.3
18.3,143,0.9,-1.9
18.4,143,0.3,-2.4
18.4,143,-0.4,-2.9
18.4,143,-1.1,-3.2
18.4,143,-1.7,-3.4
18.4,143,-2.1,-3.4
18.4,143,-2.3,-3.2
18.4,143,-2.4,-2.8
18.4,143,-2.2,-2.3
18.4,143,-1.8,-1.7
18.4,143,-1.3,-1
18.4,143,-0.6,-0.3
18.4,143,0.1,0.5
18.4,143,0.8,1.3
18.4,143,1.5,2.1
18.4,143,2,2.9
18.4,143,2.5,3.5
18.4,143,2.7,4.1
18.4,143,2.9,4.5
18.4,143,2.9,4.9
18.4,143,2.9,5.2
18.4,144,2.9,5.3
18.4,144,2.8,5.4
18.4,144,2.7,5.3
18.4,144,2.6,5.1
18.4,144,2.6,4.9
18.5,144,2.5,4.5
18.5,144,2.3,4.1
18.5,144,2.2,3.7
18.5,144,2,3.2
18.5,144,1.8,2.6
18.5,144,1.5,2
18.5,144,1.2,1.3
18.5,144,0.9,0.6
18.5,144,0.5,-0.1
18.5,144,0.1,-0.8
18.5,144,-0.3,-1.4
18.5,144,-0.9,-2.1
18.5,144,-1.5,-2.6
18.5,144,-2.1,-3.2
18.5,144,-2.8,-3.8
18.5,144,-3.5,-4.3
18.5,144,-4.1,-4.8
18.5,144,-4.5,-5.2
18.5,144,-4.8,-5.4
18.5,144,-5,-5.5
18.5,144,-5,-5.4
18.5,144,-5,-5.2
18.5,144,-4.8,-4.8
18.5,144,-4.6,-4.4
18.5,144,-4.2,-3.8
18.6,144,-3.7,-3.1
18.6,144,-3.1,-2.3
18.6,145,-2.3,-1.5
18.6,145,-1.5,-0.5
18.6,145,-0.6,0.4
18.6,145,0.2,1.4
18.6,145,1,2.3
18.6,145,1.7,3.2
18.6,145,2.3,3.9
18.6,145,2.7,4.4
18.6,145,2.9,4.8
18.6,145,2.9,5.1
18.6,145,2.8,5.1
18.6,145,2.5,5
18.6,145,2.2,4.7
18.6,145,1.8,4.3
18.6,145,1.5,3.9
18.6,145,1.3,3.4
18.6,145,1,2.9
18.6,145,0.8,2.5
18.6,145,0.5,2.2
18.6,145,0.3,2
18.6,145,0.1,1.8
18.6,145,-0.1,1.8
18.6,145,-0.2,1.9
18.7,145,-0.4,2.1
18.7,145,-0.4,2.4
18.7,145,-0.5,2.8
18.7,145,-0.4,3.3
18.7,145,-0.4,3.8
18.7,145,-0.4,4.4
18.7,145,-0.4,4.9
18.7,145,-0.4,5.4
18.7,145,-0.4,5.8
18.7,146,-0.3,6.1
18.7,146,-0.2,6.3
18.7,146,-0.1,6.3
18.7,146,0.1,6.2
18.7,146,0.2,6.1
18.7,146,0.4,5.9
18.7,146,0.5,5.7
18.7,146,0.7,5.6
18.7,146,1,5.4
18.7,146,1.2,5.2
18.7,146,1.4,5
18.7,146,1.5,4.8
18.7,146,1.7,4.6
18.7,146,1.7,4.5
18.7,146,1.8,4.3
18.7,146,1.8,4.2
18.8,146,1.7,4
18.8,146,1.6,3.8
18.8,146,1.5,3.6
18.8,146,1.3,3.3
18.8,146,1,3.1
18.8,146,0.8,2.9
18.8,146,0.7,2.6
18.8,146,0.5,2.3
18.8,146,0.4,2
18.8,146,0.4,1.6
18.8,146,0.4,1.2
18.8,146,0.5,0.7
18.8,146,0.5,0.1
18.8,146,0.6,-0.5
18.8,146,0.8,-1.1
18.8,146,0.9,-1.8
18.8,147,1.2,-2.5
18.8,147,1.4,-3.2
18.8,147,1.6,-3.9
18.8,147,1.7,-4.5
18.8,147,1.6,-5
18.8,147,1.5,-5.5
18.8,147,1.1,-5.9
18.8,147,0.6,-6.2
18.8,147,0,-6.3
18.9,147,-0.6,-6.3
18.9,147,-1.2,-6.1
18.9,147,-1.9,-5.9
18.9,147,-2.5,-5.5
18.9,147,-3,-5.1
18.9,147,-3.6,-4.7
18.9,147,-4.1,-4.3
18.9,147,-4.5,-3.9
18.9,147,-4.8,-3.5
18.9,147,-5.1,-3.1
18.9,147,-5.2,-2.7
18.9,147,-5.3,-2.4
18.9,147,-5.2,-2.2
18.9,147,-5.1,-2
18.9,147,-4.9,-2
18.9,147,-4.7,-2.1
18.9,147,-4.4,-2.3
18.9,147,-4,-2.7
18.9,147,-3.6,-3.1
18.9,147,-3.1,-3.6
18.9,147,-2.5,-4.1
18.9,147,-2,-4.6
18.9,147,-1.6,-5.1
18.9,148,-1.2,-5.4
18.9,148,-0.9,-5.6
19,148,-0.8,-5.6
19,148,-0.8,-5.6
19,148,-0.9,-5.5
19,148,-1,-5.2
19,148,-1.1,-4.8
19,148,-1.2,-4.2
19,148,-1.2,-3.6
19,148,-1.1,-2.9
19,148,-0.8,-2.1
19,148,-0.5,-1.2
19,148,-0.1,-0.4
19,148,0.3,0.5
19,148,0.7,1.5
19,148,1.1,2.4
19,148,1.4,3.4
19,148,1.7,4.4
19,148,2,5.4
19,148,2.2,6.4
19,148,2.4,7.2
19,148,2.6,8
19,148,2.9,8.7
19,148,3.2,9.2
19,148,3.5,9.6
19,148,3.8,9.9
19,148,4.1,10
19.1,148,4.3,9.9
19.1,148,4.4,9.8
19.1,148,4.5,9.6
19.1,148,4.5,9.2
19.1,148,4.3,8.7
19.1,149,4,8.2
19.1,149,3.6,7.6
19.1,149,3,6.8
19.1,149,2.4,6.1
19.1,149,1.6,5.2
19.1,149,0.8,4.4
19.1,149,0,3.5
19.1,149,-0.8,2.6
19.1,149,-1.5,1.6
19.1,149,-2.1,0.7
19.1,149,-2.6,-0.2
19.1,149,-3,-1
19.1,149,-3.4,-1.7
19.1,149,-3.8,-2.2
19.1,149,-4.2,-2.6
19.1,149,-4.5,-2.8
19.1,149,-4.9,-2.9
19.1,149,-5.2,-2.9
19.1,149,-5.5,-3
19.1,149,-5.8,-3.1
19.2,149,-5.9,-3.4
19.2,149,-5.9,-3.9
19.2,149,-5.8,-4.9
19.2,149,-5.8,-6.3
19.2,149,-5.8,-8.4
19.2,149,-6.1,-11.1
19.2,149,-6.4,-14.6
19.2,149,-6.9,-18.8
19.2,149,-7.6,-23.8
19.2,149,-8.5,-29.6
19.2,149,-9.5,-36
19.2,149,-10.8,-43.1
19.2,150,-12.2,-50.5
19.2,150,-13.6,-58.2
19.2,150,-15.1,-65.7
19.2,150,-16.4,-72.8
19.2,150,-17.6,-79
19.2,150,-18.6,-84.2
19.2,150,-19.4,-88
19.2,150,-20,-90.3
19.2,150,-20.5,-91
19.2,150,-20.7,-89.9
19.2,150,-20.7,-87.1
19.2,150,-20.6,-82.6
19.2,150,-20.2,-76.6
19.3,150,-19.6,-69.3
19.3,150,-18.8,-60.8
19.3,150,-17.5,-51.4
19.3,150,-15.9,-41.4
19.3,150,-13.8,-31
19.3,150,-11.3,-20.4
19.3,150,-8.5,-9.9
19.3,150,-5.3,0.5
19.3,150,-1.8,10.6
19.3,150,1.8,20.4
19.3,150,5.6,29.6
19.3,150,9.4,38.3
19.3,150,13.2,46.3
19.3,150,16.8,53.7
19.3,150,20.3,60.5
19.3,150,23.4,66.5
19.3,150,26.2,71.8
19.3,150,28.6,76.4
19.3,150,30.7,80.4
19.3,151,32.3,83.6
19.3,151,33.5,86.3
19.3,151,34.4,88.4
19.3,151,34.9,90
19.3,151,35.1,91
19.3,151,35,91.6
19.4,151,34.7,91.8
19.4,151,34.2,91.7
19.4,151,33.6,91.2
19.4,151,32.9,90.4
19.4,151,32.2,89.4
19.4,151,31.4,88.1
19.4,151,30.7,86.6
19.4,151,29.9,84.9
19.4,151,29.3,83.1
19.4,151,28.6,81.3
19.4,151,28.1,79.4
19.4,151,27.7,77.4
19.4,151,27.3,75.3
19.4,151,26.9,73.1
19.4,151,26.6,70.7
19.4,151,26.3,68.1
19.4,151,25.9,65.4
19.4,151,25.5,62.4
19.4,151,25.1,59.4
19.4,151,24.8,56.2
19.4,151,24.4,53
19.4,151,24,49.8
19.4,151,23.5,46.5
19.4,151,23,43.2
19.4,151,22.3,39.8
19.5,151,21.5,36.4
19.5,152,20.5,33.1
19.5,152,19.3,29.7
19.5,152,17.9,26.4
19.5,152,16.4,23.1
19.5,152,14.8,19.8
19.5,152,13.1,16.7
19.5,152,11.4,13.6
19.5,152,9.7,10.7
19.5,152,8,7.9
19.5,152,6.3,5.2
19.5,152,4.7,2.7
19.5,152,3.1,0.5
19.5,152,1.6,-1.7
19.5,152,0.1,-3.7
19.5,152,-1.3,-5.5
19.5,152,-2.6,-7.3
19.5,152,-3.9,-9
19.5,152,-5.2,-10.6
19.5,152,-6.4,-12.2
19.5,152,-7.6,-13.8
19.5,152,-8.8,-15.4
19.5,152,-9.9,-17
19.5,152,-10.9,-18.6
19.5,152,-11.8,-20.2
19.6,152,-12.5,-21.7
19.6,152,-13.2,-23.1
19.6,152,-13.7,-24.3
19.6,152,-14.2,-25.5
19.6,152,-14.5,-26.5
19.6,152,-14.8,-27.6
19.6,152,-15.1,-28.6
19.6,152,-15.4,-29.5
19.6,153,-15.6,-30.5
19.6,153,-15.9,-31.4
19.6,153,-16,-32.3
19.6,153,-16.1,-33.1
19.6,153,-16.2,-33.7
19.6,153,-16.1,-34.3
19.6,153,-15.9,-34.6
19.6,153,-15.7,-34.9
19.6,153,-15.3,-34.9
19.6,153,-14.8,-34.8
19.6,153,-14.2,-34.5
19.6,153,-13.6,-34.2
19.6,153,-12.8,-33.7
19.6,153,-12,-33.2
19.6,153,-11.3,-32.8
19.6,153,-10.6,-32.2
19.6,153,-10,-31.7
19.7,153,-9.6,-31.2
19.7,153,-9.3,-30.7
19.7,153,-9.2,-30.3
19.7,153,-9.2,-30
19.7,153,-9.5,-29.8
19.7,153,-9.9,-29.7
19.7,153,-10.4,-29.7
19.7,153,-11.1,-29.7
19.7,153,-11.8,-29.8
19.7,153,-12.4,-29.9
19.7,153,-13.1,-30
19.7,153,-13.6,-30.1
19.7,153,-14.1,-30.1
19.7,153,-14.5,-30.2
19.7,153,-14.8,-30.1
19.7,154,-15,-30.1
19.7,154,-15.1,-30
19.7,154,-15.2,-29.9
19.7,154,-15.1,-29.9
19.7,154,-15.1,-29.9
19.7,154,-14.9,-30
19.7,154,-14.7,-30
19.7,154,-14.4,-30.1
19.7,154,-14.1,-30.2
19.7,154,-13.8,-30.3
19.8,154,-13.5,-30.4
19.8,154,-13.3,-30.4
19.8,154,-13.1,-30.4
19.8,154,-13,-30.3
19.8,154,-12.9,-30.2
19.8,154,-12.8,-30
19.8,154,-12.7,-29.6
19.8,154,-12.6,-29.2
19.8,154,-12.5,-28.6
19.8,154,-12.4,-28
19.8,154,-12.3,-27.3
19.8,154,-12.3,-26.5
19.8,154,-12.3,-25.8
19.8,154,-12.3,-25.1
19.8,154,-12.5,-24.5
19.8,154,-12.6,-24
19.8,154,-12.7,-23.7
19.8,154,-12.8,-23.4
19.8,154,-12.8,-23.2
19.8,154,-12.8,-23.1
19.8,154,-12.8,-23
19.8,154,-12.7,-22.9
19.8,155,-12.6,-22.7
19.8,155,-12.3,-22.5
19.8,155,-11.9,-22.3
19.9,155,-11.3,-21.9
19.9,155,-10.6,-21.4
19.9,155,-9.8,-20.9
19.9,155,-9,-20.2
19.9,155,-8.1,-19.5
19.9,155,-7.3,-18.7
19.9,155,-6.6,-17.9
19.9,155,-6,-17
19.9,155,-5.5,-16.1
19.9,155,-4.9,-15.1
19.9,155,-4.4,-14
19.9,155,-4,-13
19.9,155,-3.6,-12
19.9,155,-3.2,-11
19.9,155,-3,-10.1
19.9,155,-2.7,-9.1
19.9,155,-2.5,-8.2
19.9,155,-2.3,-7.4
19.9,155,-2.1,-6.5
19.9,155,-1.8,-5.5
19.9,155,-1.5,-4.6
19.9,155,-1.1,-3.7
19.9,155,-0.7,-2.8
19.9,155,-0.2,-2
19.9,155,0.4,-1.3
20,155,0.9,-0.6
20,155,1.5,0
20,155,2,0.6
20,155,2.6,1.2
20,156,3.3,1.9
20,156,3.9,2.7
20,156,4.5,3.7
20,156,5,4.6
20,156,5.5,5.7
20,156,6,6.8
20,156,6.4,7.8
20,156,6.7,8.8
20,156,7,9.8
20,156,7.3,10.7
20,156,7.5,11.5
20,156,7.6,12.2
20,156,7.7,12.8
20,156,7.7,13.3
20,156,7.6,13.8
20,156,7.5,14
20,156,7.2,14.2
20,156,6.8,14.2
20,156,6.3,14.1
20,156,5.8,13.9
20,156,5.4,13.7
20.1,156,4.9,13.4
20.1,156,4.6,13.1
20.1,156,4.3,12.7
20.1,156,4.1,12.4
20.1,156,3.9,12
20.1,156,3.8,11.6
20.1,156,3.7,11.2
20.1,156,3.7,10.9
20.1,156,3.8,10.7
20.1,156,3.9,10.5
20.1,156,3.9,10.4
20.1,157,4,10.4
20.1,157,4,10.5
20.1,157,4,10.6
20.1,157,4,10.9
20.1,157,3.9,11.2
20.1,157,3.9,11.6
20.1,157,3.9,12.1
20.1,157,3.9,12.5
20.1,157,3.9,12.9
20.1,157,4,13.2
20.1,157,4,13.4
20.1,157,4.1,13.6
20.1,157,4.2,13.6
20.1,157,4.2,13.7
20.2,157,4.2,13.7
20.2,157,4.3,13.8
20.2,157,4.3,13.9
20.2,157,4.3,14
20.2,157,4.2,14
20.2,157,4.3,14.1
20.2,157,4.3,14.1
20.2,157,4.3,13.9
20.2,157,4.1,13.7
20.2,157,3.9,13.3
20.2,157,3.5,12.8
20.2,157,3,12.1
20.2,157,2.3,11.5
20.2,157,1.6,10.8
20.2,157,0.9,10.1
20.2,157,0.4,9.6
20.2,157,0.1,9.2
20.2,157,0,8.9
20.2,158,0.2,8.8
20.2,158,0.6,8.7
20.2,158,1.2,8.7
20.2,158,2,8.6
20.2,158,2.7,8.6
20.2,158,3.5,8.6
20.2,158,4.2,8.6
20.3,158,4.8,8.6
20.3,158,5.3,8.6
20.3,158,5.9,8.8
20.3,158,6.4,9
20.3,158,7,9.4
20.3,158,7.5,9.8
20.3,158,7.9,10.2
20.3,158,8.2,10.7
20.3,158,8.5,11.3
20.3,158,8.7,11.8
20.3,158,8.9,12.4
20.3,158,8.9,13
20.3,158,8.8,13.5
20.3,158,8.6,13.9
20.3,158,8.2,14.2
20.3,158,7.7,14.3
20.3,158,7,14.4
20.3,158,6.3,14.2
20.3,158,5.4,14
20.3,158,4.5,13.6
20.3,158,3.6,13.1
20.3,158,2.6,12.5
20.3,158,1.6,11.8
20.3,158,0.5,11.1
20.3,158,-0.5,10.3
20.4,159,-1.6,9.5
20.4,159,-2.6,8.7
20.4,159,-3.4,7.9
20.4,159,-4.1,7.2
20.4,159,-4.6,6.6
20.4,159,-4.9,6.1
20.4,159,-4.9,5.7
20.4,159,-4.8,5.5
20.4,159,-4.4,5.3
20.4,159,-3.9,5.2
20.4,159,-3.2,5.2
20.4,159,-2.3,5.2
20.4,159,-1.4,5.3
20.4,159,-0.3,5.4
20.4,159,0.8,5.5
20.4,159,2,5.6
20.4,159,3.1,5.7
20.4,159,4.2,5.9
20.4,159,5.2,6
20.4,159,6,6
20.4,159,6.5,6
20.4,159,6.9,6
20.4,159,7,5.8
20.4,159,6.9,5.6
20.4,159,6.7,5.4
20.5,159,6.4,5.1
20.5,159,6,4.9
20.5,159,5.6,4.7
20.5,159,5.2,4.6
20.5,159,4.9,4.5
20.5,159,4.5,4.4
20.5,159,4.2,4.4
20.5,160,3.9,4.3
20.5,160,3.6,4.2
20.5,160,3.4,4.1
20.5,160,3.3,3.9
20.5,160,3.1,3.6
20.5,160,3,3.2
20.5,160,2.9,2.8
20.5,160,2.7,2.3
20.5,160,2.5,1.7
20.5,160,2.4,1.1
20.5,160,2.1,0.5
20.5,160,1.9,-0.1
20.5,160,1.6,-0.7
20.5,160,1.2,-1.3
20.5,160,0.8,-1.8
20.5,160,0.4,-2.3
20.5,160,0,-2.8
20.5,160,-0.3,-3.1
20.6,160,-0.6,-3.4
20.6,160,-0.8,-3.5
20.6,160,-0.8,-3.5
20.6,160,-0.7,-3.4
20.6,160,-0.4,-3.2
20.6,160,-0.1,-3
20.6,160,0.4,-2.7
20.6,160,1,-2.4
20.6,160,1.7,-2.1
20.6,160,2.5,-1.9
20.6,160,3.2,-1.8
20.6,160,3.8,-1.8
20.6,160,4.4,-1.9
20.6,160,4.8,-2.1
20.6,161,5,-2.4
20.6,161,5.1,-2.8
20.6,161,5,-3.2
20.6,161,4.6,-3.6
20.6,161,4.1,-4
20.6,161,3.3,-4.4
20.6,161,2.4,-4.8
20.6,161,1.4,-5.1
20.6,161,0.4,-5.3
20.6,161,-0.6,-5.4
20.6,161,-1.5,-5.4
20.7,161,-2.4,-5.3
20.7,161,-3.1,-5
20.7,161,-3.8,-4.6
20.7,161,-4.3,-4.3
20.7,161,-4.7,-3.9
20.7,161,-4.9,-3.7
20.7,161,-4.8,-3.6
20.7,161,-4.6,-3.6
20.7,161,-4.2,-3.8
20.7,161,-3.7,-4.1
20.7,161,-3.2,-4.5
20.7,161,-2.7,-4.9
20.7,161,-2.2,-5.4
20.7,161,-1.8,-5.8
20.7,161,-1.4,-6.2
20.7,161,-1,-6.6
20.7,161,-0.8,-7
20.7,161,-0.5,-7.3
20.7,161,-0.4,-7.6
20.7,161,-0.3,-7.8
20.7,161,-0.4,-7.9
20.7,162,-0.6,-7.9
20.7,162,-0.9,-7.8
20.7,162,-1.5,-7.6
20.7,162,-2.1,-7.3
20.8,162,-2.7,-6.9
20.8,162,-3.2,-6.4
20.8,162,-3.7,-5.8
20.8,162,-4.1,-5.1
20.8,162,-4.4,-4.4
20.8,162,-4.6,-3.7
20.8,162,-4.7,-3.1
20.8,162,-4.8,-2.6
20.8,162,-4.7,-2.2
20.8,162,-4.5,-1.9
20.8,162,-4.2,-1.7
20.8,162,-3.9,-1.6
20.8,162,-3.5,-1.5
20.8,162,-3.1,-1.6
20.8,162,-2.8,-1.7
20.8,162,-2.5,-1.9
20.8,162,-2.3,-2.2
20.8,162,-2.1,-2.5
20.8,162,-1.9,-2.8
20.8,162,-1.8,-3.1
20.8,162,-1.7,-3.3
20.8,162,-1.6,-3.5
20.8,162,-1.6,-3.6
20.8,162,-1.6,-3.6
20.8,162,-1.6,-3.5
20.9,162,-1.6,-3.4
20.9,162,-1.6,-3.1
20.9,162,-1.6,-2.7
20.9,163,-1.5,-2.2
20.9,163,-1.3,-1.5
20.9,163,-1.1,-0.9
20.9,163,-0.9,-0.2
20.9,163,-0.5,0.5
20.9,163,-0.2,1.1
20.9,163,0.3,1.6
20.9,163,0.7,1.9
20.9,163,1.2,2.1
20.9,163,1.7,2.2
20.9,163,2.1,2
20.9,163,2.3,1.7
20.9,163,2.5,1.3
20.9,163,2.5,0.9
20.9,163,2.4,0.5
20.9,163,2.2,0.2
20.9,163,1.9,-0.1
20.9,163,1.4,-0.4
20.9,163,0.9,-0.6
20.9,163,0.3,-0.8
20.9,163,-0.4,-1
20.9,163,-1.1,-1.1
21,163,-1.7,-1.1
21,163,-2.2,-1
21,163,-2.7,-0.8
21,163,-3,-0.5
21,163,-3.3,-0.1
21,163,-3.3,0.4
21,163,-3.3,0.9
21,163,-3,1.4
21,163,-2.6,1.8
21,163,-2.1,2.2
21,164,-1.4,2.6
21,164,-0.7,2.8
21,164,0,3
21,164,0.7,3.1
21,164,1.4,3.2
21,164,1.9,3.2
21,164,2.4,3.1
21,164,2.8,3.2
21,164,3,3.3
21,164,3.2,3.4
21,164,3.3,3.5
21,164,3.3,3.6
21,164,3.2,3.5
21,164,3,3.4
21,164,2.7,3.2
21.1,164,2.3,2.9
21.1,164,1.9,2.6
21.1,164,1.4,2.3
21.1,164,1,2
21.1,164,0.6,1.7
21.1,164,0.4,1.4
21.1,164,0.2,1.1
21.1,164,0.1,0.8
21.1,164,0,0.4
21.1,164,-0.2,0
21.1,164,-0.6,-0.4
21.1,164,-1.1,-0.9
21.1,164,-1.8,-1.4
21.1,164,-2.6,-1.8
21.1,164,-3.3,-2.3
21.1,164,-4,-2.6
21.1,164,-4.5,-2.8
21.1,165,-4.9,-2.9
21.1,165,-5.2,-2.9
21.1,165,-5.3,-2.8
21.1,165,-5.3,-2.4
21.1,165,-5.2,-2
21.1,165,-4.8,-1.4
21.1,165,-4.3,-0.7
21.1,165,-3.5,0.2
21.2,165,-2.6,1.1
21.2,165,-1.5,2.1
21.2,165,-0.3,3
21.2,165,0.9,3.8
21.2,165,2,4.4
21.2,165,3,4.9
21.2,165,3.9,5.3
21.2,165,4.5,5.6
21.2,165,5,5.8
21.2,165,5.2,5.9
21.2,165,5.2,5.9
21.2,165,5.1,5.8
21.2,165,4.8,5.7
21.2,165,4.5,5.6
21.2,165,4.1,5.4
21.2,165,3.6,5.3
21.2,165,3.2,5.1
21.2,165,2.6,4.8
21.2,165,2.1,4.5
21.2,165,1.5,4.1
21.2,165,0.9,3.6
21.2,165,0.2,3.1
21.2,165,-0.4,2.4
21.2,165,-1,1.7
21.2,166,-1.4,1
21.3,166,-1.8,0.3
21.3,166,-2,-0.2
21.3,166,-2.1,-0.7
21.3,166,-2.1,-1.1
21.3,166,-1.9,-1.5
21.3,166,-1.7,-1.7
21.3,166,-1.3,-2
21.3,166,-0.8,-2.3
21.3,166,-0.2,-2.6
21.3,166,0.4,-3
21.3,166,1,-3.6
21.3,166,1.5,-4.2
21.3,166,2,-4.8
21.3,166,2.3,-5.5
21.3,166,2.6,-6.1
21.3,166,2.7,-6.6
21.3,166,2.6,-7
21.3,166,2.4,-7.3
21.3,166,2.1,-7.4
21.3,166,1.6,-7.3
21.3,166,1,-7
21.3,166,0.4,-6.6
21.3,166,-0.3,-6.1
21.3,166,-0.9,-5.4
21.3,166,-1.5,-4.7
21.4,166,-2.1,-3.8
21.4,166,-2.4,-2.9
21.4,166,-2.7,-2
21.4,166,-2.9,-1.1
21.4,166,-3,-0.3
21.4,166,-3,0.3
21.4,167,-2.9,0.7
21.4,167,-2.8,0.9
21.4,167,-2.6,0.9
21.4,167,-2.3,0.8
21.4,167,-1.9,0.4
21.4,167,-1.5,-0.1
21.4,167,-1,-0.7
21.4,167,-0.4,-1.4
21.4,167,0.1,-2.1
21.4,167,0.5,-2.8
21.4,167,0.9,-3.4
21.4,167,1.2,-3.9
21.4,167,1.5,-4.4
21.4,167,1.7,-4.6
21.4,167,1.8,-4.7
21.4,167,1.8,-4.6
21.4,167,1.9,-4.2
21.4,167,2,-3.7
21.4,167,2,-3.1
21.5,167,2,-2.4
21.5,167,1.9,-1.8
21.5,167,1.7,-1.1
21.5,167,1.5,-0.6
21.5,167,1.3,-0.2
21.5,167,1,0.1
21.5,167,0.7,0.2
21.5,167,0.5,0.1
21.5,167,0.2,-0.1
21.5,167,0,-0.3
21.5,167,-0.3,-0.6
21.5,167,-0.5,-1
21.5,167,-0.8,-1.4
21.5,168,-1.1,-1.8
21.5,168,-1.4,-2.2
21.5,168,-1.7,-2.7
21.5,168,-2,-3.2
21.5,168,-2.3,-3.6
21.5,168,-2.6,-4.1
21.5,168,-2.9,-4.5
21.5,168,-3.2,-4.7
21.5,168,-3.3,-4.9
21.5,168,-3.3,-4.8
21.5,168,-3.1,-4.6
21.5,168,-2.8,-4.2
21.6,168,-2.2,-3.7
21.6,168,-1.6,-3
21.6,168,-1.1,-2.2
21.6,168,-0.6,-1.4
21.6,168,-0.2,-0.5
21.6,168,0,0.3
21.6,168,0.1,1.1
21.6,168,0.2,1.7
21.6,168,0.2,2.3
21.6,168,0.2,2.7
21.6,168,0.3,3
21.6,168,0.4,3.1
21.6,168,0.4,3.1
21.6,168,0.4,2.9
21.6,168,0.4,2.5
21.6,168,0.4,2
21.6,168,0.3,1.4
21.6,168,0.2,0.8
21.6,168,0.1,0.1
21.6,168,0,-0.6
21.6,169,-0.2,-1.2
21.6,169,-0.4,-1.7
21.6,169,-0.6,-2
21.6,169,-0.9,-2.2
21.6,169,-1.2,-2.3
21.7,169,-1.5,-2.2
21.7,169,-1.8,-2.1
21.7,169,-2.2,-1.9
21.7,169,-2.5,-1.6
21.7,169,-2.9,-1.3
21.7,169,-3.1,-1
21.7,169,-3.3,-0.6
21.7,169,-3.4,-0.1
21.7,169,-3.5,0.4
21.7,169,-3.4,1
21.7,169,-3.2,1.5
21.7,169,-3,2.1
21.7,169,-2.8,2.6
21.7,169,-2.6,2.9
21.7,169,-2.4,3.1
21.7,169,-2.3,3.1
21.7,169,-2.2,2.9
21.7,169,-2.1,2.7
21.7,169,-1.9,2.5
21.7,169,-1.7,2.2
21.7,169,-1.6,2
21.7,169,-1.4,1.8
21.7,169,-1.2,1.7
21.7,169,-1.1,1.6
21.7,169,-1,1.6
21.8,169,-0.9,1.6
21.8,169,-0.9,1.5
21.8,170,-0.9,1.4
21.8,170,-0.9,1.2
21.8,170,-0.9,1
21.8,170,-0.9,0.6
21.8,170,-0.9,0.3
21.8,170,-0.9,-0.2
21.8,170,-1,-0.6
21.8,170,-1.2,-1
21.8,170,-1.3,-1.4
21.8,170,-1.4,-1.8
21.8,170,-1.5,-2
21.8,170,-1.5,-2.2
21.8,170,-1.5,-2.2
21.8,170,-1.4,-2.2
21.8,170,-1.3,-2.1
21.8,170,-1.1,-2
21.8,170,-0.8,-1.8
21.8,170,-0.5,-1.6
21.8,170,-0.3,-1.5
21.8,170,0,-1.4
21.8,170,0.2,-1.3
21.8,170,0.3,-1.2
21.8,170,0.4,-0.9
21.9,170,0.4,-0.6
21.9,170,0.4,-0.2
21.9,170,0.5,0.2
21.9,170,0.6,0.6
21.9,170,0.7,0.9
21.9,170,0.9,1.2
21.9,170,1,1.4
21.9,170,1.1,1.5
21.9,170,1.2,1.5
21.9,171,1.2,1.4
21.9,171,1.1,1.2
21.9,171,0.9,0.9
21.9,171,0.7,0.6
21.9,171,0.3,0.1
21.9,171,-0.1,-0.3
21.9,171,-0.7,-0.9
21.9,171,-1.2,-1.4
21.9,171,-1.7,-1.8
21.9,171,-2.1,-2.2
21.9,171,-2.5,-2.5
21.9,171,-2.8,-2.7
21.9,171,-2.9,-2.8
21.9,171,-2.9,-2.8
21.9,171,-2.8,-2.8
21.9,171,-2.6,-2.7
22,171,-2.3,-2.6
22,171,-2,-2.5
22,171,-1.7,-2.4
22,171,-1.6,-2.4
22,171,-1.5,-2.5
22,171,-1.6,-2.7
22,171,-1.6,-2.8
22,171,-1.6,-3
22,171,-1.5,-3
22,171,-1.3,-3
22,171,-1,-2.8
22,171,-0.6,-2.4
22,171,-0.2,-1.9
22,171,0.3,-1.2
22,171,0.8,-0.5
22,171,1.4,0.4
22,172,1.9,1.3
22,172,2.5,2.2
22,172,3,3
22,172,3.5,3.7
22,172,3.9,4.2
22,172,4.2,4.6
22,172,4.4,4.8
22,172,4.4,4.8
22,172,4.3,4.8
22.1,172,4.1,4.7
22.1,172,3.9,4.5
22.1,172,3.5,4.2
22.1,172,3,3.8
22.1,172,2.4,3.4
22.1,172,1.7,2.8
22.1,172,1.1,2.3
22.1,172,0.6,1.8
22.1,172,0.2,1.5
22.1,172,-0.1,1.2
22.1,172,-0.2,1.1
22.1,172,-0.3,1.1
22.1,172,-0.2,1.2
22.1,172,-0.1,1.5
22.1,172,0.1,1.8
22.1,172,0.3,2.3
22.1,172,0.5,2.8
22.1,172,0.8,3.3
22.1,172,1,3.8
22.1,172,1.3,4.3
22.1,172,1.5,4.8
22.1,172,1.8,5.3
22.1,172,2.1,5.7
22.1,173,2.3,6.1
22.1,173,2.5,6.4
22.2,173,2.7,6.5
22.2,173,2.9,6.4
22.2,173,3.1,6.1
22.2,173,3.2,5.5
22.2,173,3.5,4.8
22.2,173,3.6,3.9
22.2,173,3.8,2.9
22.2,173,3.9,1.8
22.2,173,3.9,0.7
22.2,173,3.8,-0.4
22.2,173,3.7,-1.5
22.2,173,3.5,-2.5
22.2,173,3.4,-3.5
22.2,173,3.2,-4.3
22.2,173,3,-5.1
22.2,173,2.8,-5.7
22.2,173,2.6,-6.1
22.2,173,2.3,-6.4
22.2,173,2.1,-6.5
22.2,173,1.8,-6.5
22.2,173,1.6,-6.2
22.2,173,1.5,-5.8
22.2,173,1.4,-5.3
22.2,173,1.4,-4.6
22.2,173,1.4,-3.8
22.3,173,1.4,-2.9
22.3,173,1.3,-2.1
22.3,173,1.2,-1.3
22.3,173,1.1,-0.6
22.3,173,0.9,0.1
22.3,174,0.7,0.6
22.3,174,0.5,1
22.3,174,0.3,1.3
22.3,174,0.1,1.5
22.3,174,0,1.6
22.3,174,0,1.8
22.3,174,0.1,1.9
22.3,174,0.4,2
22.3,174,0.9,2.1
22.3,174,1.4,2.1
22.3,174,1.8,1.9
22.3,174,1.9,1.7
22.3,174,1.6,1.3
22.3,174,0.7,0.7
22.3,174,-0.8,-0.3
22.3,174,-2.9,-1.6
22.3,174,-5.7,-3.4
22.3,174,-9,-5.4
22.3,174,-12.7,-7.7
22.3,174,-16.7,-10.1
22.4,174,-20.8,-12.6
22.4,174,-24.7,-14.9
22.4,174,-28.2,-17
22.4,174,-31.2,-18.7
22.4,174,-33.7,-19.9
22.4,174,-35.4,-20.7
22.4,174,-36.3,-20.9
22.4,174,-36.6,-20.6
22.4,174,-36.1,-19.7
22.4,174,-35,-18.5
22.4,174,-33.4,-16.9
22.4,174,-31.2,-15
22.4,175,-28.7,-13
22.4,175,-25.9,-11
22.4,175,-23,-9
22.4,175,-20,-7.1
22.4,175,-17,-5.3
22.4,175,-14.1,-3.7
22.4,175,-11.1,-2.2
22.4,175,-8.3,-0.7
22.4,175,-5.7,0.6
22.4,175,-3.1,1.9
22.4,175,-0.8,3
22.4,175,1.3,4
22.4,175,3.3,4.9
22.5,175,5.1,5.7
22.5,175,6.6,6.3
22.5,175,8,6.7
22.5,175,9.1,7.1
22.5,175,10,7.2
22.5,175,10.8,7.2
22.5,175,11.4,7.1
22.5,175,11.9,7
22.5,175,12.2,6.7
22.5,175,12.4,6.5
22.5,175,12.5,6.3
22.5,175,12.5,6.1
22.5,175,12.6,6.1
22.5,175,12.9,6.2
22.5,175,13.3,6.5
22.5,175,13.8,6.9
22.5,175,14.4,7.5
22.5,175,15.1,8.2
22.5,175,15.9,9
22.5,176,16.8,9.8
22.5,176,17.8,10.6
22.5,176,18.8,11.3
22.5,176,19.8,11.8
22.5,176,20.8,12.3
22.5,176,21.7,12.5
22.6,176,22.5,12.6
22.6,176,23.1,12.6
22.6,176,23.5,12.5
22.6,176,23.9,12.2
22.6,176,24.1,11.9
22.6,176,24.3,11.5
22.6,176,24.4,11
22.6,176,24.6,10.5
22.6,176,24.7,10
22.6,176,24.9,9.5
22.6,176,25,9.1
22.6,176,25.1,8.6
22.6,176,25,8.2
22.6,176,24.7,7.7
22.6,176,23.9,7
22.6,176,22.8,6.3
22.6,176,21.4,5.3
22.6,176,19.8,4.2
22.6,176,18.1,2.8
22.6,176,16.2,1
22.6,176,14.1,-1.3
22.6,176,11.7,-4.4
22.6,176,9.2,-8.5
22.6,176,6.5,-13.5
22.6,176,3.6,-19.8
22.7,176,0.4,-27.5
22.7,177,-3.1,-36.6
22.7,177,-6.8,-47.4
22.7,177,-10.7,-59.7
22.7,177,-14.8,-73.5
22.7,177,-19,-88.6
22.7,177,-23.4,-104.7
22.7,177,-27.7,-121.5
22.7,177,-32,-138.4
22.7,177,-36.2,-154.9
22.7,177,-40.4,-170.4
22.7,177,-44.4,-184.4
22.7,177,-48.3,-196.3
22.7,177,-51.8,-205.8
22.7,177,-55,-212.5
22.7,177,-57.7,-216.4
22.7,177,-59.8,-217.2
22.7,177,-61.3,-215.3
22.7,177,-62,-210.7
22.7,177,-62.1,-203.8
22.7,177,-61.6,-194.8
22.7,177,-60.5,-184.1
22.7,177,-58.8,-172.1
22.7,177,-56.6,-159
22.7,177,-53.8,-145.2
22.8,177,-50.5,-130.9
22.8,177,-46.7,-116.4
22.8,177,-42.4,-101.9
22.8,177,-37.8,-87.5
22.8,177,-33,-73.4
22.8,177,-28,-59.8
22.8,177,-23.1,-46.5
22.8,177,-18.1,-33.7
22.8,178,-13.2,-21.3
22.8,178,-8.3,-9.3
22.8,178,-3.5,2.4
22.8,178,1.3,13.7
22.8,178,5.9,24.7
22.8,178,10.5,35.4
22.8,178,15,45.9
22.8,178,19.2,56.1
22.8,178,23.1,66.1
22.8,178,26.7,75.8
22.8,178,30,85.3
22.8,178,32.9,94.6
22.8,178,35.5,103.5
22.8,178,37.8,112.1
22.8,178,40,120.4
22.8,178,42,128.3
22.8,178,44,135.9
22.9,178,46,143
22.9,178,48.2,149.7
22.9,178,50.5,156.1
22.9,178,53,162.2
22.9,178,55.8,168
22.9,178,58.7,173.6
22.9,178,61.8,178.8
22.9,178,64.8,183.7
22.9,178,67.8,188.4
22.9,178,70.9,192.8
22.9,178,73.9,197
22.9,178,76.8,201.1
22.9,178,79.7,205
22.9,178,82.5,208.9
22.9,178,85.1,212.6
22.9,179,87.5,216.1
22.9,179,89.7,219.4
22.9,179,91.5,222.5
22.9,179,92.9,225.4
22.9,179,93.8,227.9
22.9,179,94.4,230.2
22.9,179,94.6,232.2
22.9,179,94.5,234
22.9,179,94.1,235.5
22.9,179,93.4,236.6
23,179,92.4,237.4
23,179,91,237.8
23,179,89.2,237.8
23,179,87,237.6
23,179,84.2,237
23,179,81.1,236.2
23,179,77.6,235.2
23,179,73.9,234.1
23,179,69.9,232.7
23,179,65.6,231.2
23,179,61.1,229.3
23,179,56.4,227.3
23,179,51.4,224.9
23,179,46.3,222.3
23,179,41,219.2
23,179,35.6,215.8
23,179,30.2,211.9
23,179,24.9,207.5
23,179,19.6,202.7
23,179,14.6,197.5
23,179,9.7,191.8
23,179,5.2,185.7
23,180,1.1,179.2
23,180,-2.7,172.3
23,180,-6,164.9
23.1,180,-8.9,157.1
23.1,180,-11.3,148.9
23.1,180,-13.4,140.1
23.1,180,-15.1,130.9
23.1,180,-16.5,121.1
23.1,180,-17.7,110.9
23.1,180,-18.7,100.2
23.1,180,-19.7,89.1
23.1,180,-20.6,77.7
23.1,180,-21.6,66.1
23.1,180,-22.6,54.4
23.1,180,-23.7,42.6
23.1,180,-25,30.9
23.1,180,-26.3,19.3
23.1,180,-27.7,7.8
23.1,180,-29.1,-3.5
23.1,180,-30.7,-14.7
23.1,180,-32.5,-25.7
23.1,180,-34.3,-36.5
23.1,180,-36.2,-47.1
23.1,180,-38.3,-57.5
23.1,180,-40.3,-67.6
23.1,180,-42.4,-77.5
23.1,180,-44.5,-87
23.1,180,-46.4,-96.2
23.2,180,-48.2,-104.9
23.2,180,-49.8,-113.2
23.2,180,-51.2,-121.1
23.2,180,-52.4,-128.6
23.2,181,-53.5,-135.6
23.2,181,-54.3,-142.2
23.2,181,-55.1,-148.4
23.2,181,-55.7,-154.1
23.2,181,-56.2,-159.5
23.2,181,-56.7,-164.5
23.2,181,-57.1,-169.2
23.2,181,-57.5,-173.5
23.2,181,-57.8,-177.6
23.2,181,-58,-181.3
23.2,181,-58.3,-184.8
23.2,181,-58.5,-188.2
23.2,181,-58.9,-191.3
23.2,181,-59.3,-194.4
23.2,181,-59.8,-197.3
23.2,181,-60.4,-200.2
23.2,181,-61.2,-203
23.2,181,-61.9,-205.8
23.2,181,-62.7,-208.5
23.2,181,-63.4,-211.1
23.2,181,-64,-213.6
23.3,181,-64.5,-215.8
23.3,181,-64.8,-217.8
23.3,181,-64.9,-219.4
23.3,181,-64.8,-220.8
23.3,181,-64.6,-221.7
23.3,181,-64.2,-222.4
23.3,181,-63.7,-222.7
23.3,181,-63.2,-222.6
23.3,181,-62.6,-222.3
23.3,181,-62.1,-221.6
23.3,181,-61.5,-220.6
23.3,182,-61,-219.4
23.3,182,-60.5,-218
23.3,182,-59.9,-216.4
23.3,182,-59.3,-214.6
23.3,182,-58.6,-212.8
23.3,182,-57.8,-210.9
23.3,182,-56.9,-209
23.3,182,-55.9,-207
23.3,182,-54.9,-205
23.3,182,-53.8,-202.9
23.3,182,-52.6,-200.6
23.3,182,-51.3,-198
23.3,182,-49.9,-195.1
23.3,182,-48.4,-191.9
23.4,182,-47,-188.4
23.4,182,-45.5,-184.6
23.4,182,-44,-180.4
23.4,182,-42.5,-176
23.4,182,-40.8,-171.3
23.4,182,-39.1,-166.4
23.4,182,-37.4,-161.5
23.4,182,-35.7,-156.5
23.4,182,-33.9,-151.6
23.4,182,-32.2,-146.7
23.4,182,-30.6,-141.9
23.4,182,-29.1,-137.2
23.4,182,-27.8,-132.6
23.4,182,-26.5,-128.1
23.4,182,-25.3,-123.7
23.4,182,-24.1,-119.5
23.4,182,-22.9,-115.4
23.4,182,-21.7,-111.3
23.4,183,-20.4,-107.4
23.4,183,-19.1,-103.6
23.4,183,-17.8,-99.8
23.4,183,-16.4,-96
23.4,183,-15,-92.3
23.4,183,-13.6,-88.5
23.4,183,-12.1,-84.7
23.5,183,-10.5,-80.7
23.5,183,-8.9,-76.8
23.5,183,-7.3,-72.7
23.5,183,-5.7,-68.6
23.5,183,-4.2,-64.5
23.5,183,-2.8,-60.4
23.5,183,-1.5,-56.4
23.5,183,-0.3,-52.4
23.5,183,0.7,-48.4
23.5,183,1.6,-44.5
23.5,183,2.4,-40.8
23.5,183,3.1,-37.2
23.5,183,3.9,-33.7
23.5,183,4.7,-30.1
23.5,183,5.5,-26.6
23.5,183,6.3,-23.1
23.5,183,7.2,-19.6
23.5,183,8.1,-16
23.5,183,9.1,-12.5
23.5,183,10.2,-9
23.5,183,11.4,-5.6
23.5,183,12.6,-2.1
23.5,183,13.8,1.3
23.5,183,14.9,4.8
23.5,183,16.1,8.3
23.6,184,17.2,11.9
23.6,184,18.2,15.5
23.6,184,19.1,19.1
23.6,184,20,22.7
23.6,184,20.7,26.3
23.6,184,21.3,29.8
23.6,184,21.9,33.2
23.6,184,22.5,36.5
23.6,184,23.2,39.6
23.6,184,23.8,42.6
23.6,184,24.4,45.5
23.6,184,24.9,48.1
23.6,184,25.4,50.7
23.6,184,25.8,53.1
23.6,184,26.1,55.5
23.6,184,26.3,57.9
23.6,184,26.3,60.3
23.6,184,26.2,62.6
23.6,184,26.1,64.9
23.6,184,25.9,67.2
23.6,184,25.7,69.4
23.6,184,25.5,71.6
23.6,184,25.2,73.6
23.6,184,24.9,75.6
23.6,184,24.6,77.4
23.7,184,24.3,79.1
23.7,184,24,80.6
23.7,184,23.8,82.1
23.7,184,23.6,83.4
23.7,184,23.5,84.5
23.7,184,23.5,85.5
23.7,184,23.6,86.4
23.7,185,23.9,87.2
23.7,185,24.3,88
23.7,185,24.9,88.7
23.7,185,25.7,89.4
23.7,185,26.6,90.1
23.7,185,27.5,90.6
23.7,185,28.2,91
23.7,185,28.8,91.1
23.7,185,29,91.1
23.7,185,28.9,90.8
23.7,185,28.4,90.4
23.7,185,27.8,89.8
23.7,185,27,89.3
23.7,185,26.2,88.8
23.7,185,25.4,88.4
23.7,185,24.7,88.1
23.7,185,24.1,87.9
23.7,185,23.6,87.9
23.8,185,23.3,87.9
23.8,185,23.1,88
23.8,185,23,88.1
23.8,185,23,88.2
23.8,185,23.1,88.3
23.8,185,23.2,88.3
23.8,185,23.3,88.2
23.8,185,23.4,87.9
23.8,185,23.4,87.6
23.8,185,23.4,87.2
23.8,185,23.3,86.7
23.8,185,23.2,86.2
23.8,185,23,85.8
23.8,185,22.9,85.4
23.8,186,22.7,85.1
23.8,186,22.5,84.9
23.8,186,22.4,84.8
23.8,186,22.3,84.8
23.8,186,22.2,84.9
23.8,186,22.1,84.8
23.8,186,21.9,84.7
23.8,186,21.7,84.4
23.8,186,21.5,84
23.8,186,21.2,83.4
23.8,186,21,82.6
23.9,186,20.7,81.7
23.9,186,20.5,80.5
23.9,186,20.3,79.1
23.9,186,20.2,77.6
23.9,186,20.1,76
23.9,186,19.9,74.2
23.9,186,19.7,72.4
23.9,186,19.5,70.5
23.9,186,19.2,68.7
23.9,186,19,66.9
23.9,186,18.9,65.2
23.9,186,18.8,63.6
23.9,186,18.8,62
23.9,186,18.8,60.5
23.9,186,18.9,59
23.9,186,18.8,57.4
23.9,186,18.7,55.9
23.9,186,18.5,54.3
23.9,186,18.3,52.7
23.9,186,17.9,51.2
23.9,186,17.5,49.6
23.9,187,17,48.1
23.9,187,16.5,46.7
23.9,187,15.8,45.3
23.9,187,15.2,44.1
24,187,14.5,43.1
24,187,13.8,42.1
24,187,13,41.3
24,187,12.1,40.7
24,187,11.2,40.1
24,187,10.2,39.5
24,187,9.1,38.9
24,187,8.1,38.2
24,187,7,37.4
24,187,5.9,36.4
24,187,5,35.4
24,187,4.2,34.2
24,187,3.4,32.8
24,187,2.8,31.3
24,187,2.3,29.6
24,187,1.8,27.9
24,187,1.3,26
24,187,0.9,24.1
24,187,0.4,22.1
24,187,-0.1,20.1
24,187,-0.6,18.1
24,187,-1.2,16.1
24,187,-1.8,14.2
24,187,-2.4,12.4
24,187,-3,10.7
24.1,187,-3.6,9.1
24.1,187,-4.2,7.6
24.1,187,-4.7,6.1
24.1,188,-5.3,4.8
24.1,188,-5.8,3.5
24.1,188,-6.3,2.2
24.1,188,-6.7,1
24.1,188,-7.1,-0.2
24.1,188,-7.4,-1.5
24.1,188,-7.6,-2.6
24.1,188,-7.7,-3.7
24.1,188,-7.7,-4.7
24.1,188,-7.6,-5.6
24.1,188,-7.5,-6.3
24.1,188,-7.3,-6.9
24.1,188,-7.2,-7.4
24.1,188,-7,-7.8
24.1,188,-6.9,-8.2
24.1,188,-6.8,-8.7
24.1,188,-6.7,-9.2
24.1,188,-6.6,-9.8
24.1,188,-6.7,-10.4
24.1,188,-6.8,-11.1
24.1,188,-7,-11.9
24.1,188,-7.3,-12.7
24.2,188,-7.6,-13.5
24.2,188,-8,-14.3
24.2,188,-8.3,-15.2
24.2,188,-8.7,-16.1
24.2,188,-9.1,-17.1
24.2,188,-9.5,-18.1
24.2,188,-9.9,-19.1
24.2,188,-10.2,-20.1
24.2,188,-10.4,-21
24.2,188,-10.5,-21.9
24.2,189,-10.5,-22.7
24.2,189,-10.5,-23.4
24.2,189,-10.4,-23.9
24.2,189,-10.2,-24.4
24.2,189,-10.1,-24.9
24.2,189,-9.9,-25.2
24.2,189,-9.7,-25.6
24.2,189,-9.6,-25.9
24.2,189,-9.4,-26.3
24.2,189,-9.3,-26.6
24.2,189,-9.1,-26.9
24.2,189,-8.9,-27.2
24.2,189,-8.7,-27.5
24.2,189,-8.6,-27.8
24.2,189,-8.6,-28
24.3,189,-8.5,-28.1
24.3,189,-8.4,-28.3
24.3,189,-8.4,-28.4
24.3,189,-8.3,-28.5
24.3,189,-8.2,-28.5
24.3,189,-8.1,-28.6
24.3,189,-7.9,-28.5
24.3,189,-7.6,-28.5
24.3,189,-7.3,-28.3
24.3,189,-7,-28
24.3,189,-6.6,-27.6
24.3,189,-6.1,-27.1
24.3,189,-5.7,-26.4
24.3,189,-5.3,-25.7
24.3,189,-5.1,-24.9
24.3,189,-4.9,-24
24.3,189,-4.8,-23.2
24.3,190,-4.9,-22.2
24.3,190,-5,-21.3
24.3,190,-5.2,-20.4
24.3,190,-5.5,-19.5
24.3,190,-5.7,-18.7
24.3,190,-5.9,-18
24.3,190,-6.1,-17.3
24.3,190,-6.1,-16.7
24.4,190,-6,-16.2
24.4,190,-5.8,-15.8
24.4,190,-5.4,-15.5
24.4,190,-4.9,-15.3
24.4,190,-4.2,-15.2
24.4,190,-3.5,-15.2
24.4,190,-2.8,-15.3
24.4,190,-2,-15.5
24.4,190,-1.3,-15.8
24.4,190,-0.6,-16.3
24.4,190,0.1,-16.7
24.4,190,0.7,-17.2
24.4,190,1.1,-17.6
24.4,190,1.5,-18
24.4,190,1.7,-18.3
24.4,190,1.8,-18.6
24.4,190,1.7,-18.8
24.4,190,1.6,-18.9
24.4,190,1.3,-18.9
24.4,190,1,-18.7
24.4,190,0.6,-18.5
24.4,190,0.2,-18.2
24.4,190,-0.4,-17.8
24.4,190,-0.9,-17.4
24.4,191,-1.5,-16.9
24.5,191,-1.9,-16.5
24.5,191,-2.2,-16
24.5,191,-2.3,-15.6
24.5,191,-2.2,-15.2
24.5,191,-1.9,-14.7
24.5,191,-1.4,-14.3
24.5,191,-0.6,-13.7
24.5,191,0.2,-13.2
24.5,191,1.1,-12.6
24.5,191,2,-12
24.5,191,2.7,-11.5
24.5,191,3.4,-11
24.5,191,3.8,-10.5
24.5,191,4.2,-10
24.5,191,4.3,-9.4
24.5,191,4.4,-8.8
24.5,191,4.4,-8
24.5,191,4.3,-7.1
24.5,191,4.2,-6.1
24.5,191,4,-5.1
24.5,191,3.8,-4.1
24.5,191,3.6,-3.2
24.5,191,3.2,-2.5
24.5,191,2.8,-1.9
24.5,191,2.3,-1.4
24.6,191,1.6,-1.1
24.6,191,0.9,-0.8
24.6,191,0,-0.7
24.6,191,-1.1,-0.8
24.6,191,-2.3,-1
24.6,191,-3.6,-1.4
24.6,192,-4.8,-1.8
24.6,192,-5.7,-2.2
24.6,192,-6.4,-2.6
24.6,192,-6.8,-3
24.6,192,-6.9,-3.3
24.6,192,-6.8,-3.4
24.6,192,-6.4,-3.4
24.6,192,-5.8,-3.1
24.6,192,-5,-2.7
24.6,192,-4.2,-2
24.6,192,-3.3,-1.2
24.6,192,-2.4,-0.2
24.6,192,-1.5,0.8
24.6,192,-0.8,1.9
24.6,192,-0.2,2.9
24.6,192,0.3,3.8
24.6,192,0.6,4.5
24.6,192,0.8,5.1
24.6,192,0.8,5.5
24.7,192,0.6,5.8
24.7,192,0.4,5.8
24.7,192,0.2,5.8
24.7,192,-0.1,5.6
24.7,192,-0.3,5.3
24.7,192,-0.6,4.9
24.7,192,-0.8,4.5
24.7,192,-0.9,3.9
24.7,192,-1.1,3.4
24.7,192,-1.3,2.7
24.7,192,-1.5,2.1
24.7,192,-1.7,1.5
24.7,192,-1.8,0.9
24.7,193,-1.8,0.3
24.7,193,-1.8,-0.1
24.7,193,-1.6,-0.5
24.7,193,-1.3,-0.7
24.7,193,-0.8,-0.7
24.7,193,-0.3,-0.6
24.7,193,0.3,-0.3
24.7,193,0.9,0.2
24.7,193,1.6,0.8
24.7,193,2.4,1.5
24.7,193,3.1,2.4
24.7,193,3.9,3.3
24.8,193,4.6,4.2
24.8,193,5.3,5.1
24.8,193,5.9,5.8
24.8,193,6.4,6.4
24.8,193,6.8,6.8
24.8,193,7,7
24.8,193,7.1,7
24.8,193,7.1,6.8
24.8,193,6.9,6.4
24.8,193,6.7,6
24.8,193,6.3,5.4
24.8,193,5.8,4.9
24.8,193,5.1,4.3
24.8,193,4.4,3.7
24.8,193,3.7,3.1
24.8,193,2.9,2.4
24.8,193,2.1,1.8
24.8,193,1.4,1.2
24.8,193,0.7,0.7
24.8,193,0.1,0.3
24.8,194,-0.5,0
24.8,194,-1,-0.2
24.8,194,-1.4,-0.4
24.8,194,-1.8,-0.5
24.8,194,-2,-0.5
24.9,194,-2.1,-0.5
24.9,194,-2,-0.3
24.9,194,-1.7,-0.1
24.9,194,-1.3,0.2
24.9,194,-0.7,0.6
24.9,194,-0.1,1
24.9,194,0.5,1.5
24.9,194,1,1.8
24.9,194,1.4,2.1
24.9,194,1.6,2.3
24.9,194,1.6,2.3
24.9,194,1.6,2.3
24.9,194,1.4,2.2
24.9,194,1.2,2
24.9,194,1,1.8
24.9,194,0.7,1.6
24.9,194,0.3,1.4
24.9,194,-0.2,1.1
24.9,194,-0.9,0.9
24.9,194,-1.6,0.5
24.9,194,-2.3,0.1
24.9,194,-3,-0.3
24.9,194,-3.7,-0.6
24.9,194,-4.3,-1
24.9,194,-4.7,-1.2
25,194,-5,-1.4
25,194,-5.1,-1.5
25,195,-5.1,-1.5
25,195,-5,-1.5
25,195,-4.9,-1.6
25,195,-4.6,-1.8
25,195,-4.3,-2.1
25,195,-4,-2.5
25,195,-3.7,-2.9
25,195,-3.5,-3.4
25,195,-3.2,-3.9
25,195,-2.9,-4.4
25,195,-2.6,-4.8
25,195,-2.3,-5.1
25,195,-2,-5.2
25,195,-1.8,-5.3
25,195,-1.6,-5.1
25,195,-1.4,-4.8
25,195,-1.3,-4.4
25,195,-1.1,-3.9
25,195,-1,-3.4
25,195,-0.9,-2.9
25,195,-0.8,-2.5
25,195,-0.7,-2.2
25,195,-0.7,-2.1
25.1,195,-0.7,-2.2
25.1,195,-0.7,-2.3
25.1,195,-0.7,-2.5
25.1,195,-0.7,-2.8
25.1,195,-0.7,-3
25.1,195,-0.8,-3.2
25.1,195,-0.8,-3.4
25.1,195,-0.8,-3.5
25.1,195,-0.7,-3.5
25.1,196,-0.7,-3.4
25.1,196,-0.5,-3.3
25.1,196,-0.3,-3.1
25.1,196,-0.1,-3
25.1,196,0.2,-2.9
25.1,196,0.5,-2.8
25.1,196,0.8,-2.8
25.1,196,1.1,-2.7
25.1,196,1.4,-2.6
25.1,196,1.7,-2.5
25.1,196,2,-2.3
25.1,196,2.3,-2.1
25.1,196,2.6,-1.9
25.1,196,2.8,-1.7
25.1,196,3,-1.6
25.1,196,3,-1.5
25.2,196,2.9,-1.4
25.2,196,2.7,-1.4
25.2,196,2.3,-1.4
25.2,196,1.9,-1.4
25.2,196,1.4,-1.5
25.2,196,0.9,-1.5
25.2,196,0.4,-1.6
25.2,196,-0.2,-1.7
25.2,196,-0.6,-1.7
25.2,196,-1.1,-1.7
25.2,196,-1.5,-1.6
25.2,196,-1.9,-1.4
25.2,196,-2.4,-1.1
25.2,196,-2.9,-0.8
25.2,196,-3.5,-0.5
25.2,196,-4,-0.2
25.2,197,-4.6,0.1
25.2,197,-5.1,0.3
25.2,197,-5.6,0.4
25.2,197,-6.1,0.3
25.2,197,-6.4,0.3
25.2,197,-6.7,0.1
25.2,197,-6.8,0
25.2,197,-6.7,-0.2
25.2,197,-6.6,-0.3
25.3,197,-6.4,-0.6
25.3,197,-6,-0.9
25.3,197,-5.6,-1.3
25.3,197,-5.2,-1.7
25.3,197,-4.7,-2.3
25.3,197,-4.2,-2.8
25.3,197,-3.7,-3.3
25.3,197,-3.2,-3.7
25.3,197,-2.8,-4.2
25.3,197,-2.5,-4.5
25.3,197,-2.2,-4.9
25.3,197,-1.9,-5.2
25.3,197,-1.7,-5.4
25.3,197,-1.4,-5.6
25.3,197,-1.1,-5.6
25.3,197,-0.8,-5.5
25.3,197,-0.5,-5.2
25.3,197,-0.1,-4.8
25.3,197,0.3,-4.2
25.3,197,0.7,-3.6
25.3,197,1.1,-2.9
25.3,197,1.5,-2.4
25.3,197,1.9,-1.8
25.3,198,2.2,-1.4
25.3,198,2.5,-1
25.4,198,2.7,-0.7
25.4,198,2.8,-0.6
25.4,198,2.8,-0.6
25.4,198,2.7,-0.8
25.4,198,2.5,-1.2
25.4,198,2.3,-1.7
25.4,198,1.9,-2.3
25.4,198,1.4,-3.1
25.4,198,0.8,-4
25.4,198,0,-5
25.4,198,-0.9,-6
25.4,198,-1.8,-7.2
25.4,198,-2.8,-8.3
25.4,198,-3.7,-9.4
25.4,198,-4.6,-10.3
25.4,198,-5.2,-11.1
25.4,198,-5.7,-11.5
25.4,198,-5.9,-11.7
25.4,198,-5.9,-11.6
25.4,198,-5.6,-11.2
25.4,198,-5.2,-10.5
25.4,198,-4.6,-9.5
25.4,198,-3.8,-8.3
25.4,198,-2.9,-6.9
25.4,198,-1.9,-5.4
25.5,198,-0.9,-3.7
25.5,198,0.2,-2.1
25.5,198,1.2,-0.6
25.5,198,2.3,0.9
25.5,198,3.3,2.2
25.5,199,4.1,3.5
25.5,199,4.9,4.6
25.5,199,5.4,5.5
25.5,199,5.8,6.2
25.5,199,5.9,6.8
25.5,199,5.9,7.1
25.5,199,5.5,7.3
25.5,199,5,7.2
25.5,199,4.2,6.9
25.5,199,3.2,6.4
25.5,199,2,5.6
25.5,199,0.6,4.6
25.5,199,-0.9,3.5
25.5,199,-2.6,2.3
25.5,199,-4.2,1.1
25.5,199,-5.9,-0.2
25.5,199,-7.5,-1.3
25.5,199,-9,-2.3
25.5,199,-10.3,-3.2
25.5,199,-11.3,-3.9
25.6,199,-12.1,-4.4
25.6,199,-12.7,-4.6
25.6,199,-12.9,-4.6
25.6,199,-12.8,-4.3
25.6,199,-12.3,-3.7
25.6,199,-11.5,-3
25.6,199,-10.3,-2
25.6,199,-8.9,-0.9
25.6,199,-7.2,0.2
25.6,199,-5.4,1.3
25.6,199,-3.6,2.3
25.6,199,-1.8,3.2
25.6,200,-0.1,4
25.6,200,1.5,4.7
25.6,200,2.9,5.3
25.6,200,4,5.9
25.6,200,4.9,6.4
25.6,200,5.6,6.8
25.6,200,6,7.2
25.6,200,6.3,7.4
25.6,200,6.5,7.6
25.6,200,6.6,7.7
25.6,200,6.6,7.9
25.6,200,6.6,8.1
25.6,200,6.6,8.2
25.7,200,6.5,8.4
25.7,200,6.5,8.5
25.7,200,6.4,8.7
25.7,200,6.3,8.9
25.7,200,6.2,9.1
25.7,200,6.2,9.3
25.7,200,6.2,9.5
25.7,200,6.2,9.8
25.7,200,6.4,10
25.7,200,6.6,10.3
25.7,200,6.9,10.5
25.7,200,7.2,10.7
25.7,200,7.6,10.9
25.7,200,7.9,11
25.7,200,8.2,11
25.7,200,8.5,10.9
25.7,200,8.7,10.9
25.7,200,8.9,10.8
25.7,200,9,10.7
25.7,201,8.9,10.6
25.7,201,8.8,10.5
25.7,201,8.4,10.4
25.7,201,8,10.2
25.7,201,7.4,10
25.7,201,6.9,9.7
25.8,201,6.3,9.4
25.8,201,5.7,9
25.8,201,5.3,8.6
25.8,201,4.9,8.1
25.8,201,4.7,7.5
25.8,201,4.6,6.9
25.8,201,4.5,6.2
25.8,201,4.4,5.6
25.8,201,4.3,4.9
25.8,201,4,4.3
25.8,201,3.7,3.7
25.8,201,3.4,3.1
25.8,201,3,2.5
25.8,201,2.6,1.9
25.8,201,2.1,1.4
25.8,201,1.6,0.9
25.8,201,1.2,0.7
25.8,201,0.9,0.5
25.8,201,0.6,0.5
25.8,201,0.5,0.7
25.8,201,0.4,0.9
25.8,201,0.4,1.3
25.8,201,0.5,1.6
25.8,201,0.7,2
25.8,201,0.9,2.4
25.9,201,1.2,2.7
25.9,202,1.5,2.9
25.9,202,1.8,3
25.9,202,2.2,3
25.9,202,2.5,2.9
25.9,202,2.7,2.6
25.9,202,2.9,2.2
25.9,202,3.1,1.6
25.9,202,3.2,1
25.9,202,3.2,0.2
25.9,202,3.2,-0.6
25.9,202,3.1,-1.4
25.9,202,3,-2.1
25.9,202,2.9,-2.7
25.9,202,2.8,-3.3
25.9,202,2.7,-3.7
25.9,202,2.6,-3.9
25.9,202,2.5,-4.1
25.9,202,2.3,-4.1
25.9,202,2.1,-4.1
25.9,202,1.7,-4
25.9,202,1.2,-3.8
25.9,202,0.5,-3.7
25.9,202,-0.2,-3.5
25.9,202,-1,-3.3
26,202,-1.8,-3.3
26,202,-2.8,-3.3
26,202,-3.7,-3.4
26,202,-4.6,-3.6
26,202,-5.4,-4
26,202,-6.2,-4.4
26,202,-6.8,-5
26,202,-7.2,-5.7
26,203,-7.4,-6.5
26,203,-7.4,-7.2
26,203,-7.3,-8
26,203,-7,-8.6
26,203,-6.6,-9.2
26,203,-6,-9.7
26,203,-5.5,-10
26,203,-4.9,-10.3
26,203,-4.5,-10.6
26,203,-4.2,-10.8
26,203,-4.1,-11
26,203,-4.1,-11.1
26,203,-4.3,-11.2
26,203,-4.5,-11.2
26,203,-4.7,-11.1
26,203,-4.9,-10.7
26,203,-4.9,-10.2
26.1,203,-4.9,-9.4
26.1,203,-4.8,-8.5
26.1,203,-4.6,-7.4
26.1,203,-4.3,-6.3
26.1,203,-4,-5.3
26.1,203,-3.7,-4.3
26.1,203,-3.3,-3.5
26.1,203,-3,-2.9
26.1,203,-2.7,-2.5
26.1,203,-2.4,-2.3
26.1,203,-2.2,-2.3
26.1,203,-2.1,-2.6
26.1,203,-2.1,-3
26.1,203,-2.2,-3.6
26.1,203,-2.4,-4.4
26.1,204,-2.7,-5.2
26.1,204,-3.1,-6.1
26.1,204,-3.7,-7.1
26.1,204,-4.3,-8
26.1,204,-4.9,-8.8
26.1,204,-5.5,-9.5
26.1,204,-6,-10
26.1,204,-6.4,-10.3
26.1,204,-6.5,-10.5
26.1,204,-6.4,-10.6
26.2,204,-6.2,-10.4
26.2,204,-5.8,-10.1
26.2,204,-5.3,-9.7
26.2,204,-4.6,-9.1
26.2,204,-3.9,-8.3
26.2,204,-3.1,-7.5
26.2,204,-2.3,-6.6
26.2,204,-1.6,-5.7
26.2,204,-1,-5
26.2,204,-0.5,-4.3
26.2,204,-0.2,-3.9
26.2,204,-0.1,-3.7
26.2,204,-0.1,-3.6
26.2,204,-0.1,-3.7
26.2,204,-0.3,-3.9
26.2,204,-0.7,-4.2
26.2,204,-1.2,-4.6
26.2,204,-1.9,-5.1
26.2,204,-2.8,-5.6
26.2,204,-3.8,-6.1
26.2,204,-4.8,-6.5
26.2,204,-5.8,-6.8
26.2,205,-6.6,-6.9
26.2,205,-7.1,-6.9
26.2,205,-7.3,-6.7
26.3,205,-7.2,-6.4
26.3,205,-6.7,-6
26.3,205,-6,-5.4
26.3,205,-5.1,-4.8
26.3,205,-4.1,-4.1
26.3,205,-3,-3.3
26.3,205,-2,-2.5
26.3,205,-1,-1.8
26.3,205,0,-1.1
26.3,205,1,-0.5
26.3,205,1.9,0.1
26.3,205,2.8,0.7
26.3,205,3.6,1.2
26.3,205,4.4,1.8
26.3,205,5,2.3
26.3,205,5.5,2.7
26.3,205,5.8,3.1
26.3,205,6,3.5
26.3,205,6,3.8
26.3,205,5.9,4.1
26.3,205,5.8,4.4
26.3,205,5.6,4.7
26.3,205,5.4,5
26.3,205,5.1,5.4
26.3,205,4.8,5.6
26.4,205,4.5,5.9
26.4,205,4,6.1
26.4,205,3.5,6.2
26.4,205,3,6.2
26.4,206,2.4,6.2
26.4,206,1.8,6.2
26.4,206,1.2,6.2
26.4,206,0.7,6.2
26.4,206,0.2,6.3
26.4,206,-0.1,6.3
26.4,206,-0.4,6.5
26.4,206,-0.5,6.6
26.4,206,-0.6,6.7
26.4,206,-0.6,6.8
26.4,206,-0.5,6.9
26.4,206,-0.3,6.9
26.4,206,0,6.9
26.4,206,0.4,6.8
26.4,206,0.8,6.8
26.4,206,1.3,6.7
26.4,206,1.7,6.6
26.4,206,2.1,6.5
26.4,206,2.4,6.3
26.4,206,2.6,6
26.4,206,2.8,5.7
26.5,206,2.9,5.3
26.5,206,2.9,4.9
26.5,206,2.8,4.4
26.5,206,2.6,4
26.5,206,2.3,3.7
26.5,206,2,3.4
26.5,206,1.6,3.2
26.5,206,1.3,2.9
26.5,206,0.9,2.7
26.5,206,0.5,2.4
26.5,206,0.2,2.1
26.5,207,0,1.7
26.5,207,-0.2,1.4
26.5,207,-0.3,1.1
26.5,207,-0.4,1
26.5,207,-0.5,1
26.5,207,-0.6,1.1
26.5,207,-0.6,1.4
26.5,207,-0.7,1.9
26.5,207,-0.7,2.3
26.5,207,-0.6,2.8
26.5,207,-0.6,3.4
26.5,207,-0.5,3.9
26.5,207,-0.4,4.4
26.5,207,-0.1,4.9
26.6,207,0.2,5.4
26.6,207,0.5,5.8
26.6,207,1,6.2
26.6,207,1.6,6.4
26.6,207,2.2,6.6
26.6,207,2.8,6.6
26.6,207,3.3,6.6
26.6,207,3.7,6.4
26.6,207,4,6.2
26.6,207,4.2,5.8
26.6,207,4.3,5.4
26.6,207,4.3,4.9
26.6,207,4.2,4.3
26.6,207,4,3.7
26.6,207,3.7,3.1
26.6,207,3.4,2.6
26.6,207,3.2,2
26.6,207,2.9,1.6
26.6,208,2.8,1.1
26.6,208,2.6,0.7
26.6,208,2.4,0.4
26.6,208,2.3,0.1
26.6,208,2,-0.2
26.6,208,1.7,-0.5
26.6,208,1.3,-0.7
26.7,208,0.8,-0.8
26.7,208,0.4,-1
26.7,208,-0.1,-1
26.7,208,-0.4,-1
26.7,208,-0.4,-0.8
26.7,208,-0.3,-0.5
26.7,208,0,-0.1
26.7,208,0.4,0.3
26.7,208,0.8,0.7
26.7,208,1.2,1.1
26.7,208,1.6,1.5
26.7,208,2.1,1.9
26.7,208,2.5,2.2
26.7,208,2.9,2.4
26.7,208,3.3,2.6
26.7,208,3.5,2.7
26.7,208,3.6,2.6
26.7,208,3.7,2.5
26.7,208,3.7,2.4
26.7,208,3.7,2.1
26.7,208,3.7,1.8
26.7,208,3.6,1.5
26.7,208,3.5,1.1
26.7,208,3.4,0.7
26.7,208,3.3,0.3
26.8,209,3.1,0
26.8,209,3,-0.2
26.8,209,2.8,-0.3
26.8,209,2.6,-0.4
26.8,209,2.4,-0.3
26.8,209,2,-0.3
26.8,209,1.6,-0.2
26.8,209,1.1,-0.1
26.8,209,0.7,-0.1
26.8,209,0.2,0
26.8,209,-0.3,0
26.8,209,-0.7,-0.1
26.8,209,-1.2,-0.2
26.8,209,-1.7,-0.4
26.8,209,-2.1,-0.7
26.8,209,-2.5,-1
26.8,209,-2.9,-1.4
26.8,209,-3.2,-1.9
26.8,209,-3.3,-2.3
26.8,209,-3.4,-2.7
26.8,209,-3.2,-3.1
26.8,209,-3,-3.4
26.8,209,-2.6,-3.6
26.8,209,-2.2,-3.7
26.8,209,-1.7,-3.7
26.9,209,-1.4,-3.7
26.9,209,-1.1,-3.7
26.9,209,-1,-3.7
26.9,209,-1,-3.6
26.9,209,-1,-3.6
26.9,209,-1.2,-3.5
26.9,209,-1.4,-3.5
26.9,210,-1.7,-3.6
26.9,210,-2,-3.6
26.9,210,-2.5,-3.7
26.9,210,-3.1,-3.8
26.9,210,-3.8,-3.8
26.9,210,-4.5,-3.9
26.9,210,-5.2,-3.8
26.9,210,-5.8,-3.8
26.9,210,-6.2,-3.6
26.9,210,-6.4,-3.4
26.9,210,-6.4,-3.1
26.9,210,-6.3,-2.7
26.9,210,-6.1,-2.4
26.9,210,-5.8,-2
26.9,210,-5.5,-1.7
26.9,210,-5.3,-1.4
26.9,210,-5.1,-1.3
26.9,210,-5.1,-1.2
27,210,-5,-1.3
27,210,-5.1,-1.5
27,210,-5.1,-1.8
27,210,-5.1,-2.1
27,210,-5,-2.4
27,210,-4.8,-2.6
27,210,-4.5,-2.9
27,210,-4.2,-3
27,210,-3.9,-3
27,210,-3.5,-2.8
27,210,-3.2,-2.5
27,210,-2.9,-1.9
27,210,-2.5,-1.2
27,210,-2.1,-0.4
27,211,-1.7,0.5
27,211,-1.3,1.3
27,211,-0.9,2
27,211,-0.5,2.6
27,211,-0.2,3
27,211,0,3.2
27,211,0.2,3.2
27,211,0.3,3.1
27,211,0.3,2.8
27,211,0.3,2.5
27,211,0.3,2.1
27.1,211,0.3,1.8
27.1,211,0.2,1.5
27.1,211,0.1,1.2
27.1,211,0,1
27.1,211,-0.1,0.9
27.1,211,-0.1,0.8
27.1,211,-0.2,0.7
27.1,211,-0.3,0.6
27.1,211,-0.5,0.5
27.1,211,-0.8,0.2
27.1,211,-1.3,-0.1
27.1,211,-1.9,-0.7
27.1,211,-2.6,-1.4
27.1,211,-3.4,-2.1
27.1,211,-4.1,-2.8
27.1,211,-4.8,-3.4
27.1,211,-5.5,-4
27.1,211,-6.3,-4.5
27.1,211,-7.1,-5
27.1,211,-7.9,-5.4
27.1,211,-8.5,-5.9
27.1,212,-8.8,-6.5
27.1,212,-9,-7.4
27.1,212,-9.1,-8.8
27.1,212,-9.1,-10.9
27.2,212,-9.3,-13.9
27.2,212,-9.7,-18
27.2,212,-10.3,-23.2
27.2,212,-11,-29.6
27.2,212,-11.8,-37.2
27.2,212,-12.9,-46.2
27.2,212,-14.5,-56.9
27.2,212,-16.4,-69.1
27.2,212,-18.8,-82.9
27.2,212,-21.5,-97.8
27.2,212,-24.7,-113.5
27.2,212,-28.2,-129.5
27.2,212,-31.8,-145.2
27.2,212,-35.4,-160
27.2,212,-38.9,-173.4
27.2,212,-42.1,-184.8
27.2,212,-44.8,-193.8
27.2,212,-47.1,-200
27.2,212,-48.9,-203.2
27.2,212,-50.1,-203.4
27.2,212,-50.7,-200.7
27.2,212,-50.6,-195
27.2,212,-49.6,-186.7
27.2,212,-48,-176.1
27.2,212,-45.6,-163.5
27.3,212,-42.7,-149.4
27.3,212,-39.3,-134.3
27.3,212,-35.3,-118.5
27.3,213,-30.8,-102.4
27.3,213,-26,-86.4
27.3,213,-21,-70.7
27.3,213,-16,-55.6
27.3,213,-10.9,-41.2
27.3,213,-5.9,-27.6
27.3,213,-0.9,-14.9
27.3,213,3.9,-2.9
27.3,213,8.7,8.2
27.3,213,13.2,18.5
27.3,213,17.6,28.2
27.3,213,21.9,37.4
27.3,213,26.1,46.2
27.3,213,30.2,54.7
27.3,213,34.2,63
27.3,213,37.9,71.1
27.3,213,41.5,79.1
27.3,213,45,86.9
27.3,213,48.4,94.6
27.3,213,51.8,102.3
27.3,213,55.2,110
27.3,213,58.6,117.6
27.4,213,62,125.2
27.4,213,65.1,132.6
27.4,213,67.9,139.7
27.4,213,70.4,146.2
27.4,213,72.5,152.1
27.4,213,74.2,157.4
27.4,213,75.5,162.2
27.4,213,76.5,166.3
27.4,213,77.1,169.9
27.4,213,77.2,172.8
27.4,214,76.9,175.2
27.4,214,76.4,177.1
27.4,214,75.6,178.7
27.4,214,74.6,179.9
27.4,214,73.5,181
27.4,214,72.1,181.8
27.4,214,70.7,182.5
27.4,214,69.2,183
27.4,214,67.5,183.3
27.4,214,65.8,183.3
27.4,214,64,183.2
27.4,214,62.2,182.8
27.4,214,60.5,182.3
27.4,214,58.9,181.6
27.4,214,57.4,180.7
27.5,214,55.9,179.6
27.5,214,54.5,178.4
27.5,214,53.1,177
27.5,214,51.9,175.5
27.5,214,50.8,174.1
27.5,214,49.7,172.7
27.5,214,48.7,171.3
27.5,214,47.5,170
27.5,214,46.1,168.7
27.5,214,44.4,167.5
27.5,214,42.3,166.4
27.5,214,39.8,165.3
27.5,214,36.8,164.2
27.5,214,33.4,163
27.5,214,29.6,161.9
27.5,214,25.4,160.7
27.5,214,21,159.6
27.5,215,16.5,158.4
27.5,215,11.9,157.2
27.5,215,7.3,155.9
27.5,215,2.8,154.5
27.5,215,-1.7,153
27.5,215,-5.9,151.3
27.5,215,-9.9,149.5
27.5,215,-13.7,147.4
27.6,215,-17.3,145
27.6,215,-20.5,142.4
27.6,215,-23.4,139.5
27.6,215,-25.8,136.2
27.6,215,-27.7,132.5
27.6,215,-29.1,128.2
27.6,215,-30,123.5
27.6,215,-30.4,118.1
27.6,215,-30.4,112.1
27.6,215,-30,105.6
27.6,215,-29.3,98.6
27.6,215,-28.2,91.1
27.6,215,-27,83.1
27.6,215,-25.5,74.7
